milis,ecg
1436875455152,500
1436875455156,500
1436875455160,500
1436875455164,500
1436875455168,500
1436875455172,500
1436875455176,500
1436875455180,500
1436875455184,500
1436875455188,500
1436875455192,500
1436875455196,500
1436875455200,500
1436875455204,501
1436875455208,501
1436875455212,500
1436875455216,500
1436875455220,500
1436875455224,500
1436875455228,500
1436875455232,500
1436875455236,500
1436875455240,500
1436875455244,500
1436875455248,500
1436875455252,500
1436875455256,500
1436875455260,500
1436875455264,500
1436875455268,500
1436875455272,499
1436875455276,1023
1436875455280,499
1436875455284,499
1436875455288,499
1436875455292,1023
1436875455296,500
1436875455300,500
1436875455304,500
1436875455308,501
1436875455312,501
1436875455316,501
1436875455320,501
1436875455324,1022
1436875455328,502
1436875455332,502
1436875455336,502
1436875455340,501
1436875455344,501
1436875455348,501
1436875455352,501
1436875455356,501
1436875455360,501
1436875455364,501
1436875455368,501
1436875455372,501
1436875455376,501
1436875455380,501
1436875455384,501
1436875455388,501
1436875455392,502
1436875455396,502
1436875455400,502
1436875455404,502
1436875455408,500
1436875455412,496
1436875455416,1023
1436875455420,486
1436875455424,484
1436875455428,485
1436875455432,493
1436875455436,505
1436875455440,523
1436875455444,543
1436875455448,565
1436875455452,583
1436875455456,593
1436875455460,590
1436875455464,1023
1436875455468,551
1436875455472,526
1436875455476,506
1436875455480,496
1436875455484,493
1436875455488,494
1436875455492,496
1436875455496,497
1436875455500,497
1436875455504,496
1436875455508,496
1436875455512,496
1436875455516,496
1436875455520,496
1436875455524,496
1436875455528,496
1436875455532,496
1436875455536,497
1436875455540,497
1436875455544,1022
1436875455548,498
1436875455552,498
1436875455556,498
1436875455560,1022
1436875455564,497
1436875455568,497
1436875455572,497
1436875455576,497
1436875455580,497
1436875455584,497
1436875455588,497
1436875455592,497
1436875455596,497
1436875455600,498
1436875455604,498
1436875455608,1022
1436875455612,498
1436875455616,498
1436875455620,498
1436875455624,1022
1436875455628,499
1436875455632,499
1436875455636,499
1436875455640,1023
1436875455644,499
1436875455648,500
1436875455652,500
1436875455656,500
1436875455660,500
1436875455664,500
1436875455668,500
1436875455672,500
1436875455676,501
1436875455680,501
1436875455684,501
1436875455688,501
1436875455692,501
1436875455696,501
1436875455700,501
1436875455704,500
1436875455708,500
1436875455712,499
1436875455716,1023
1436875455720,498
1436875455724,498
1436875455728,498
1436875455732,1022
1436875455736,498
1436875455740,498
1436875455744,498
1436875455748,1022
1436875455752,498
1436875455756,498
1436875455760,498
1436875455764,1022
1436875455768,498
1436875455772,498
1436875455776,499
1436875455780,1023
1436875455784,499
1436875455788,499
1436875455792,500
1436875455796,500
1436875455800,501
1436875455804,501
1436875455808,500
1436875455812,500
1436875455816,500
1436875455820,499
1436875455824,499
1436875455828,1023
1436875455832,500
1436875455836,500
1436875455840,500
1436875455844,500
1436875455848,500
1436875455852,500
1436875455856,500
1436875455860,500
1436875455864,500
1436875455868,500
1436875455872,501
1436875455876,501
1436875455880,501
1436875455884,501
1436875455888,501
1436875455892,501
1436875455896,501
1436875455900,501
1436875455904,501
1436875455908,501
1436875455912,501
1436875455916,501
1436875455920,501
1436875455924,501
1436875455928,501
1436875455932,501
1436875455936,501
1436875455940,501
1436875455944,501
1436875455948,501
1436875455952,501
1436875455956,501
1436875455960,501
1436875455964,501
1436875455968,1022
1436875455972,501
1436875455976,501
1436875455980,501
1436875455984,500
1436875455988,500
1436875455992,500
1436875455996,500
1436875456000,500
1436875456004,500
1436875456008,500
1436875456012,500
1436875456016,500
1436875456020,500
1436875456024,501
1436875456028,501
1436875456032,501
1436875456036,501
1436875456040,501
1436875456044,501
1436875456048,501
1436875456052,501
1436875456056,502
1436875456060,502
1436875456064,1022
1436875456068,502
1436875456072,502
1436875456076,503
1436875456080,1023
1436875456084,503
1436875456088,503
1436875456092,503
1436875456096,1022
1436875456100,502
1436875456104,502
1436875456108,502
1436875456112,1022
1436875456116,502
1436875456120,501
1436875456124,501
1436875456128,1022
1436875456132,502
1436875456136,502
1436875456140,503
1436875456144,1023
1436875456148,504
1436875456152,504
1436875456156,503
1436875456160,501
1436875456164,497
1436875456168,492
1436875456172,488
1436875456176,487
1436875456180,490
1436875456184,499
1436875456188,513
1436875456192,532
1436875456196,554
1436875456200,575
1436875456204,592
1436875456208,598
1436875456212,591
1436875456216,572
1436875456220,1023
1436875456224,523
1436875456228,506
1436875456232,498
1436875456236,1022
1436875456240,500
1436875456244,502
1436875456248,503
1436875456252,1022
1436875456256,502
1436875456260,502
1436875456264,502
1436875456268,1022
1436875456272,502
1436875456276,502
1436875456280,502
1436875456284,1022
1436875456288,502
1436875456292,503
1436875456296,503
1436875456300,504
1436875456304,504
1436875456308,504
1436875456312,504
1436875456316,504
1436875456320,505
1436875456324,505
1436875456328,505
1436875456332,505
1436875456336,505
1436875456340,505
1436875456344,505
1436875456348,1022
1436875456352,506
1436875456356,506
1436875456360,507
1436875456364,1023
1436875456368,507
1436875456372,507
1436875456376,508
1436875456380,508
1436875456384,508
1436875456388,508
1436875456392,508
1436875456396,508
1436875456400,508
1436875456404,508
1436875456408,508
1436875456412,508
1436875456416,509
1436875456420,509
1436875456424,509
1436875456428,510
1436875456432,510
1436875456436,510
1436875456440,1022
1436875456444,510
1436875456448,510
1436875456452,509
1436875456456,509
1436875456460,508
1436875456464,507
1436875456468,506
1436875456472,505
1436875456476,504
1436875456480,504
1436875456484,504
1436875456488,504
1436875456492,504
1436875456496,504
1436875456500,504
1436875456504,504
1436875456508,504
1436875456512,505
1436875456516,505
1436875456520,1022
1436875456524,506
1436875456528,505
1436875456532,505
1436875456536,505
1436875456540,505
1436875456544,505
1436875456548,506
1436875456552,1022
1436875456556,506
1436875456560,506
1436875456564,506
1436875456568,1022
1436875456572,506
1436875456576,506
1436875456580,506
1436875456584,1022
1436875456588,505
1436875456592,505
1436875456596,505
1436875456600,505
1436875456604,505
1436875456608,505
1436875456612,505
1436875456616,505
1436875456620,505
1436875456624,505
1436875456628,505
1436875456632,505
1436875456636,505
1436875456640,505
1436875456644,505
1436875456648,505
1436875456652,505
1436875456656,504
1436875456660,504
1436875456664,504
1436875456668,505
1436875456672,505
1436875456676,505
1436875456680,505
1436875456684,505
1436875456688,504
1436875456692,504
1436875456696,504
1436875456700,504
1436875456704,504
1436875456708,504
1436875456712,504
1436875456716,504
1436875456720,504
1436875456724,504
1436875456728,504
1436875456732,504
1436875456736,504
1436875456740,504
1436875456744,504
1436875456748,504
1436875456752,504
1436875456756,504
1436875456760,504
1436875456764,504
1436875456768,504
1436875456772,504
1436875456776,504
1436875456780,504
1436875456784,504
1436875456788,505
1436875456792,505
1436875456796,506
1436875456800,506
1436875456804,1022
1436875456808,506
1436875456812,506
1436875456816,506
1436875456820,1022
1436875456824,506
1436875456828,506
1436875456832,506
1436875456836,1022
1436875456840,506
1436875456844,506
1436875456848,506
1436875456852,505
1436875456856,505
1436875456860,505
1436875456864,505
1436875456868,505
1436875456872,505
1436875456876,506
1436875456880,506
1436875456884,1022
1436875456888,506
1436875456892,504
1436875456896,500
1436875456900,1023
1436875456904,489
1436875456908,486
1436875456912,486
1436875456916,493
1436875456920,506
1436875456924,525
1436875456928,1022
1436875456932,569
1436875456936,588
1436875456940,600
1436875456944,600
1436875456948,586
1436875456952,562
1436875456956,534
1436875456960,512
1436875456964,499
1436875456968,495
1436875456972,497
1436875456976,1023
1436875456980,501
1436875456984,501
1436875456988,501
1436875456992,501
1436875456996,501
1436875457000,501
1436875457004,500
1436875457008,500
1436875457012,500
1436875457016,500
1436875457020,500
1436875457024,501
1436875457028,501
1436875457032,501
1436875457036,501
1436875457040,501
1436875457044,502
1436875457048,502
1436875457052,502
1436875457056,1023
1436875457060,502
1436875457064,502
1436875457068,502
1436875457072,1022
1436875457076,502
1436875457080,502
1436875457084,503
1436875457088,1023
1436875457092,503
1436875457096,504
1436875457100,504
1436875457104,504
1436875457108,505
1436875457112,505
1436875457116,505
1436875457120,505
1436875457124,505
1436875457128,505
1436875457132,505
1436875457136,1022
1436875457140,506
1436875457144,506
1436875457148,506
1436875457152,1022
1436875457156,506
1436875457160,506
1436875457164,507
1436875457168,507
1436875457172,507
1436875457176,507
1436875457180,1022
1436875457184,505
1436875457188,504
1436875457192,503
1436875457196,1022
1436875457200,502
1436875457204,501
1436875457208,501
1436875457212,501
1436875457216,500
1436875457220,500
1436875457224,500
1436875457228,500
1436875457232,500
1436875457236,500
1436875457240,500
1436875457244,500
1436875457248,501
1436875457252,501
1436875457256,501
1436875457260,501
1436875457264,501
1436875457268,500
1436875457272,500
1436875457276,500
1436875457280,500
1436875457284,500
1436875457288,501
1436875457292,501
1436875457296,501
1436875457300,501
1436875457304,501
1436875457308,501
1436875457312,501
1436875457316,501
1436875457320,501
1436875457324,501
1436875457328,502
1436875457332,502
1436875457336,502
1436875457340,1022
1436875457344,501
1436875457348,501
1436875457352,501
1436875457356,501
1436875457360,501
1436875457364,501
1436875457368,501
1436875457372,501
1436875457376,501
1436875457380,501
1436875457384,501
1436875457388,501
1436875457392,501
1436875457396,501
1436875457400,501
1436875457404,501
1436875457408,501
1436875457412,501
1436875457416,502
1436875457420,502
1436875457424,502
1436875457428,502
1436875457432,1022
1436875457436,502
1436875457440,501
1436875457444,501
1436875457448,501
1436875457452,501
1436875457456,501
1436875457460,500
1436875457464,500
1436875457468,501
1436875457472,501
1436875457476,501
1436875457480,501
1436875457484,501
1436875457488,501
1436875457492,501
1436875457496,501
1436875457500,502
1436875457504,502
1436875457508,502
1436875457512,1022
1436875457516,502
1436875457520,502
1436875457524,502
1436875457528,1022
1436875457532,502
1436875457536,502
1436875457540,502
1436875457544,1022
1436875457548,502
1436875457552,502
1436875457556,502
1436875457560,1022
1436875457564,502
1436875457568,501
1436875457572,501
1436875457576,1022
1436875457580,502
1436875457584,503
1436875457588,503
1436875457592,1023
1436875457596,502
1436875457600,498
1436875457604,493
1436875457608,488
1436875457612,483
1436875457616,483
1436875457620,488
1436875457624,1023
1436875457628,516
1436875457632,537
1436875457636,560
1436875457640,1022
1436875457644,598
1436875457648,601
1436875457652,591
1436875457656,569
1436875457660,541
1436875457664,516
1436875457668,500
1436875457672,494
1436875457676,495
1436875457680,497
1436875457684,1023
1436875457688,499
1436875457692,498
1436875457696,498
1436875457700,1022
1436875457704,498
1436875457708,498
1436875457712,498
1436875457716,1022
1436875457720,498
1436875457724,499
1436875457728,499
1436875457732,1023
1436875457736,499
1436875457740,499
1436875457744,499
1436875457748,1023
1436875457752,499
1436875457756,499
1436875457760,500
1436875457764,500
1436875457768,500
1436875457772,500
1436875457776,500
1436875457780,500
1436875457784,500
1436875457788,500
1436875457792,501
1436875457796,501
1436875457800,502
1436875457804,503
1436875457808,503
1436875457812,1023
1436875457816,503
1436875457820,503
1436875457824,503
1436875457828,1023
1436875457832,504
1436875457836,504
1436875457840,504
1436875457844,504
1436875457848,504
1436875457852,505
1436875457856,505
1436875457860,505
1436875457864,506
1436875457868,506
1436875457872,506
1436875457876,1022
1436875457880,506
1436875457884,505
1436875457888,505
1436875457892,504
1436875457896,504
1436875457900,503
1436875457904,503
1436875457908,1022
1436875457912,502
1436875457916,502
1436875457920,502
1436875457924,501
1436875457928,501
1436875457932,501
1436875457936,501
1436875457940,501
1436875457944,501
1436875457948,501
1436875457952,1022
1436875457956,502
1436875457960,502
1436875457964,502
1436875457968,1022
1436875457972,502
1436875457976,503
1436875457980,503
1436875457984,1023
1436875457988,503
1436875457992,503
1436875457996,503
1436875458000,1023
1436875458004,503
1436875458008,503
1436875458012,503
1436875458016,1023
1436875458020,503
1436875458024,504
1436875458028,504
1436875458032,504
1436875458036,503
1436875458040,504
1436875458044,504
1436875458048,504
1436875458052,504
1436875458056,504
1436875458060,504
1436875458064,504
1436875458068,504
1436875458072,504
1436875458076,504
1436875458080,504
1436875458084,503
1436875458088,503
1436875458092,503
1436875458096,1023
1436875458100,503
1436875458104,503
1436875458108,503
1436875458112,1023
1436875458116,503
1436875458120,503
1436875458124,503
1436875458128,1023
1436875458132,503
1436875458136,503
1436875458140,503
1436875458144,1023
1436875458148,502
1436875458152,502
1436875458156,502
1436875458160,1022
1436875458164,503
1436875458168,503
1436875458172,503
1436875458176,503
1436875458180,503
1436875458184,503
1436875458188,1023
1436875458192,503
1436875458196,504
1436875458200,504
1436875458204,504
1436875458208,505
1436875458212,505
1436875458216,505
1436875458220,505
1436875458224,505
1436875458228,505
1436875458232,505
1436875458236,505
1436875458240,505
1436875458244,504
1436875458248,504
1436875458252,505
1436875458256,505
1436875458260,505
1436875458264,505
1436875458268,505
1436875458272,505
1436875458276,505
1436875458280,506
1436875458284,1022
1436875458288,506
1436875458292,505
1436875458296,503
1436875458300,1022
1436875458304,493
1436875458308,489
1436875458312,487
1436875458316,1023
1436875458320,501
1436875458324,516
1436875458328,536
1436875458332,1023
1436875458336,581
1436875458340,598
1436875458344,604
1436875458348,596
1436875458352,576
1436875458356,549
1436875458360,524
1436875458364,1022
1436875458368,499
1436875458372,498
1436875458376,500
1436875458380,1022
1436875458384,502
1436875458388,501
1436875458392,501
1436875458396,501
1436875458400,501
1436875458404,500
1436875458408,500
1436875458412,500
1436875458416,500
1436875458420,501
1436875458424,501
1436875458428,501
1436875458432,501
1436875458436,501
1436875458440,501
1436875458444,501
1436875458448,501
1436875458452,501
1436875458456,501
1436875458460,502
1436875458464,502
1436875458468,502
1436875458472,1022
1436875458476,502
1436875458480,502
1436875458484,503
1436875458488,1023
1436875458492,504
1436875458496,504
1436875458500,504
1436875458504,504
1436875458508,504
1436875458512,504
1436875458516,504
1436875458520,504
1436875458524,505
1436875458528,505
1436875458532,504
1436875458536,504
1436875458540,504
1436875458544,505
1436875458548,505
1436875458552,1022
1436875458556,506
1436875458560,506
1436875458564,506
1436875458568,1022
1436875458572,506
1436875458576,505
1436875458580,505
1436875458584,504
1436875458588,503
1436875458592,503
1436875458596,502
1436875458600,501
1436875458604,501
1436875458608,500
1436875458612,500
1436875458616,500
1436875458620,500
1436875458624,499
1436875458628,499
1436875458632,1023
1436875458636,499
1436875458640,499
1436875458644,499
1436875458648,1023
1436875458652,500
1436875458656,500
1436875458660,500
1436875458664,500
1436875458668,501
1436875458672,501
1436875458676,501
1436875458680,501
1436875458684,501
1436875458688,501
1436875458692,501
1436875458696,501
1436875458700,501
1436875458704,501
1436875458708,501
1436875458712,501
1436875458716,501
1436875458720,502
1436875458724,1022
1436875458728,501
1436875458732,501
1436875458736,501
1436875458740,501
1436875458744,501
1436875458748,501
1436875458752,502
1436875458756,1022
1436875458760,502
1436875458764,502
1436875458768,502
1436875458772,1022
1436875458776,502
1436875458780,502
1436875458784,502
1436875458788,501
1436875458792,502
1436875458796,502
1436875458800,502
1436875458804,1023
1436875458808,503
1436875458812,502
1436875458816,502
1436875458820,1022
1436875458824,501
1436875458828,501
1436875458832,502
1436875458836,1022
1436875458840,502
1436875458844,502
1436875458848,501
1436875458852,1022
1436875458856,502
1436875458860,502
1436875458864,502
1436875458868,1022
1436875458872,501
1436875458876,501
1436875458880,501
1436875458884,501
1436875458888,501
1436875458892,502
1436875458896,502
1436875458900,1022
1436875458904,503
1436875458908,503
1436875458912,503
1436875458916,1023
1436875458920,504
1436875458924,504
1436875458928,505
1436875458932,504
1436875458936,504
1436875458940,504
1436875458944,1023
1436875458948,503
1436875458952,503
1436875458956,503
1436875458960,1023
1436875458964,503
1436875458968,503
1436875458972,503
1436875458976,1023
1436875458980,503
1436875458984,503
1436875458988,504
1436875458992,504
1436875458996,504
1436875459000,504
1436875459004,503
1436875459008,500
1436875459012,495
1436875459016,490
1436875459020,487
1436875459024,1022
1436875459028,491
1436875459032,501
1436875459036,517
1436875459040,537
1436875459044,559
1436875459048,581
1436875459052,597
1436875459056,601
1436875459060,592
1436875459064,570
1436875459068,543
1436875459072,1023
1436875459076,504
1436875459080,498
1436875459084,498
1436875459088,500
1436875459092,501
1436875459096,501
1436875459100,500
1436875459104,500
1436875459108,500
1436875459112,500
1436875459116,500
1436875459120,500
1436875459124,500
1436875459128,500
1436875459132,500
1436875459136,500
1436875459140,500
1436875459144,500
1436875459148,500
1436875459152,500
1436875459156,500
1436875459160,500
1436875459164,501
1436875459168,501
1436875459172,501
1436875459176,502
1436875459180,502
1436875459184,501
1436875459188,501
1436875459192,501
1436875459196,501
1436875459200,502
1436875459204,502
1436875459208,502
1436875459212,1023
1436875459216,503
1436875459220,503
1436875459224,504
1436875459228,504
1436875459232,504
1436875459236,504
1436875459240,504
1436875459244,505
1436875459248,505
1436875459252,505
1436875459256,505
1436875459260,1022
1436875459264,506
1436875459268,506
1436875459272,507
1436875459276,1023
1436875459280,507
1436875459284,507
1436875459288,507
1436875459292,1023
1436875459296,507
1436875459300,506
1436875459304,506
1436875459308,505
1436875459312,505
1436875459316,504
1436875459320,503
1436875459324,1023
1436875459328,503
1436875459332,502
1436875459336,503
1436875459340,1022
1436875459344,503
1436875459348,503
1436875459352,503
1436875459356,1023
1436875459360,503
1436875459364,503
1436875459368,503
1436875459372,1023
1436875459376,503
1436875459380,504
1436875459384,504
1436875459388,504
1436875459392,504
1436875459396,504
1436875459400,504
1436875459404,504
1436875459408,504
1436875459412,505
1436875459416,505
1436875459420,505
1436875459424,505
1436875459428,505
1436875459432,505
1436875459436,504
1436875459440,504
1436875459444,504
1436875459448,504
1436875459452,504
1436875459456,505
1436875459460,505
1436875459464,505
1436875459468,505
1436875459472,505
1436875459476,504
1436875459480,504
1436875459484,505
1436875459488,505
1436875459492,505
1436875459496,505
1436875459500,504
1436875459504,504
1436875459508,504
1436875459512,504
1436875459516,504
1436875459520,504
1436875459524,504
1436875459528,504
1436875459532,504
1436875459536,504
1436875459540,504
1436875459544,504
1436875459548,504
1436875459552,504
1436875459556,504
1436875459560,504
1436875459564,504
1436875459568,504
1436875459572,503
1436875459576,1023
1436875459580,503
1436875459584,503
1436875459588,503
1436875459592,1023
1436875459596,503
1436875459600,503
1436875459604,503
1436875459608,1023
1436875459612,503
1436875459616,503
1436875459620,503
1436875459624,1023
1436875459628,503
1436875459632,503
1436875459636,503
1436875459640,1023
1436875459644,503
1436875459648,503
1436875459652,503
1436875459656,1023
1436875459660,503
1436875459664,504
1436875459668,504
1436875459672,504
1436875459676,504
1436875459680,505
1436875459684,505
1436875459688,504
1436875459692,505
1436875459696,505
1436875459700,505
1436875459704,504
1436875459708,504
1436875459712,504
1436875459716,504
1436875459720,504
1436875459724,504
1436875459728,504
1436875459732,504
1436875459736,504
1436875459740,504
1436875459744,504
1436875459748,504
1436875459752,504
1436875459756,504
1436875459760,505
1436875459764,505
1436875459768,505
1436875459772,504
1436875459776,501
1436875459780,497
1436875459784,492
1436875459788,487
1436875459792,486
1436875459796,489
1436875459800,498
1436875459804,513
1436875459808,531
1436875459812,553
1436875459816,575
1436875459820,592
1436875459824,600
1436875459828,1023
1436875459832,576
1436875459836,551
1436875459840,525
1436875459844,1023
1436875459848,498
1436875459852,497
1436875459856,498
1436875459860,500
1436875459864,501
1436875459868,500
1436875459872,500
1436875459876,500
1436875459880,500
1436875459884,499
1436875459888,499
1436875459892,500
1436875459896,500
1436875459900,500
1436875459904,500
1436875459908,500
1436875459912,500
1436875459916,500
1436875459920,501
1436875459924,501
1436875459928,501
1436875459932,501
1436875459936,501
1436875459940,501
1436875459944,501
1436875459948,501
1436875459952,501
1436875459956,501
1436875459960,501
1436875459964,502
1436875459968,1022
1436875459972,502
1436875459976,503
1436875459980,503
1436875459984,1023
1436875459988,503
1436875459992,503
1436875459996,504
1436875460000,504
1436875460004,504
1436875460008,505
1436875460012,505
1436875460016,505
1436875460020,505
1436875460024,505
1436875460028,505
1436875460032,1022
1436875460036,506
1436875460040,506
1436875460044,507
1436875460048,1023
1436875460052,508
1436875460056,508
1436875460060,507
1436875460064,1023
1436875460068,506
1436875460072,505
1436875460076,505
1436875460080,505
1436875460084,504
1436875460088,504
1436875460092,504
1436875460096,1023
1436875460100,503
1436875460104,503
1436875460108,503
1436875460112,1023
1436875460116,503
1436875460120,503
1436875460124,503
1436875460128,1023
1436875460132,503
1436875460136,503
1436875460140,503
1436875460144,504
1436875460148,504
1436875460152,504
1436875460156,504
1436875460160,504
1436875460164,505
1436875460168,505
1436875460172,505
1436875460176,505
1436875460180,505
1436875460184,505
1436875460188,505
1436875460192,505
1436875460196,505
1436875460200,505
1436875460204,505
1436875460208,505
1436875460212,505
1436875460216,505
1436875460220,505
1436875460224,505
1436875460228,505
1436875460232,505
1436875460236,505
1436875460240,505
1436875460244,505
1436875460248,505
1436875460252,505
1436875460256,505
1436875460260,505
1436875460264,505
1436875460268,505
1436875460272,505
1436875460276,505
1436875460280,505
1436875460284,505
1436875460288,505
1436875460292,505
1436875460296,505
1436875460300,1022
1436875460304,506
1436875460308,506
1436875460312,505
1436875460316,505
1436875460320,505
1436875460324,504
1436875460328,505
1436875460332,505
1436875460336,505
1436875460340,505
1436875460344,505
1436875460348,505
1436875460352,505
1436875460356,504
1436875460360,504
1436875460364,504
1436875460368,504
1436875460372,504
1436875460376,504
1436875460380,504
1436875460384,504
1436875460388,504
1436875460392,504
1436875460396,504
1436875460400,504
1436875460404,504
1436875460408,504
1436875460412,504
1436875460416,504
1436875460420,504
1436875460424,505
1436875460428,504
1436875460432,504
1436875460436,503
1436875460440,503
1436875460444,503
1436875460448,503
1436875460452,503
1436875460456,1023
1436875460460,503
1436875460464,502
1436875460468,502
1436875460472,1022
1436875460476,502
1436875460480,502
1436875460484,502
1436875460488,1022
1436875460492,502
1436875460496,502
1436875460500,502
1436875460504,1022
1436875460508,502
1436875460512,502
1436875460516,503
1436875460520,1023
1436875460524,503
1436875460528,503
1436875460532,503
1436875460536,1023
1436875460540,503
1436875460544,503
1436875460548,504
1436875460552,504
1436875460556,504
1436875460560,504
1436875460564,503
1436875460568,1023
1436875460572,503
1436875460576,503
1436875460580,503
1436875460584,1023
1436875460588,503
1436875460592,503
1436875460596,504
1436875460600,505
1436875460604,505
1436875460608,505
1436875460612,504
1436875460616,501
1436875460620,497
1436875460624,492
1436875460628,487
1436875460632,1022
1436875460636,490
1436875460640,500
1436875460644,515
1436875460648,1023
1436875460652,557
1436875460656,579
1436875460660,596
1436875460664,1022
1436875460668,595
1436875460672,576
1436875460676,549
1436875460680,524
1436875460684,506
1436875460688,498
1436875460692,498
1436875460696,500
1436875460700,502
1436875460704,502
1436875460708,501
1436875460712,501
1436875460716,501
1436875460720,501
1436875460724,501
1436875460728,501
1436875460732,501
1436875460736,501
1436875460740,501
1436875460744,501
1436875460748,502
1436875460752,502
1436875460756,1022
1436875460760,502
1436875460764,502
1436875460768,502
1436875460772,1022
1436875460776,503
1436875460780,503
1436875460784,503
1436875460788,1023
1436875460792,503
1436875460796,504
1436875460800,504
1436875460804,504
1436875460808,504
1436875460812,504
1436875460816,504
1436875460820,504
1436875460824,505
1436875460828,506
1436875460832,506
1436875460836,1022
1436875460840,506
1436875460844,506
1436875460848,507
1436875460852,1023
1436875460856,507
1436875460860,507
1436875460864,507
1436875460868,508
1436875460872,508
1436875460876,508
1436875460880,509
1436875460884,509
1436875460888,509
1436875460892,509
1436875460896,509
1436875460900,508
1436875460904,508
1436875460908,507
1436875460912,506
1436875460916,1022
1436875460920,505
1436875460924,504
1436875460928,504
1436875460932,1023
1436875460936,502
1436875460940,502
1436875460944,502
1436875460948,502
1436875460952,502
1436875460956,502
1436875460960,1022
1436875460964,502
1436875460968,502
1436875460972,502
1436875460976,1022
1436875460980,502
1436875460984,502
1436875460988,503
1436875460992,1023
1436875460996,503
1436875461000,503
1436875461004,503
1436875461008,1023
1436875461012,503
1436875461016,503
1436875461020,503
1436875461024,1023
1436875461028,503
1436875461032,503
1436875461036,503
1436875461040,1023
1436875461044,503
1436875461048,503
1436875461052,504
1436875461056,504
1436875461060,503
1436875461064,503
1436875461068,503
1436875461072,1023
1436875461076,503
1436875461080,503
1436875461084,503
1436875461088,1023
1436875461092,503
1436875461096,503
1436875461100,503
1436875461104,1023
1436875461108,503
1436875461112,503
1436875461116,503
1436875461120,1023
1436875461124,503
1436875461128,503
1436875461132,503
1436875461136,1023
1436875461140,503
1436875461144,503
1436875461148,502
1436875461152,1022
1436875461156,502
1436875461160,503
1436875461164,503
1436875461168,1023
1436875461172,503
1436875461176,503
1436875461180,503
1436875461184,1022
1436875461188,502
1436875461192,502
1436875461196,502
1436875461200,502
1436875461204,502
1436875461208,502
1436875461212,1023
1436875461216,503
1436875461220,503
1436875461224,503
1436875461228,1023
1436875461232,503
1436875461236,503
1436875461240,503
1436875461244,1023
1436875461248,503
1436875461252,503
1436875461256,502
1436875461260,1022
1436875461264,502
1436875461268,502
1436875461272,502
1436875461276,1022
1436875461280,503
1436875461284,502
1436875461288,502
1436875461292,1022
1436875461296,503
1436875461300,503
1436875461304,503
1436875461308,504
1436875461312,504
1436875461316,504
1436875461320,504
1436875461324,504
1436875461328,504
1436875461332,504
1436875461336,504
1436875461340,1023
1436875461344,503
1436875461348,503
1436875461352,503
1436875461356,1023
1436875461360,503
1436875461364,503
1436875461368,503
1436875461372,1023
1436875461376,503
1436875461380,503
1436875461384,503
1436875461388,1023
1436875461392,503
1436875461396,504
1436875461400,504
1436875461404,504
1436875461408,502
1436875461412,498
1436875461416,493
1436875461420,1023
1436875461424,484
1436875461428,484
1436875461432,491
1436875461436,504
1436875461440,522
1436875461444,544
1436875461448,568
1436875461452,588
1436875461456,601
1436875461460,601
1436875461464,1022
1436875461468,561
1436875461472,533
1436875461476,510
1436875461480,497
1436875461484,494
1436875461488,495
1436875461492,498
1436875461496,1023
1436875461500,499
1436875461504,499
1436875461508,499
1436875461512,1023
1436875461516,498
1436875461520,498
1436875461524,498
1436875461528,1022
1436875461532,498
1436875461536,498
1436875461540,498
1436875461544,1022
1436875461548,498
1436875461552,499
1436875461556,499
1436875461560,1023
1436875461564,499
1436875461568,499
1436875461572,499
1436875461576,1023
1436875461580,499
1436875461584,500
1436875461588,500
1436875461592,500
1436875461596,500
1436875461600,501
1436875461604,501
1436875461608,501
1436875461612,501
1436875461616,501
1436875461620,502
1436875461624,1022
1436875461628,503
1436875461632,503
1436875461636,503
1436875461640,504
1436875461644,505
1436875461648,505
1436875461652,505
1436875461656,505
1436875461660,505
1436875461664,505
1436875461668,505
1436875461672,1022
1436875461676,506
1436875461680,506
1436875461684,506
1436875461688,505
1436875461692,505
1436875461696,504
1436875461700,504
1436875461704,503
1436875461708,502
1436875461712,501
1436875461716,501
1436875461720,500
1436875461724,500
1436875461728,499
1436875461732,1023
1436875461736,499
1436875461740,499
1436875461744,498
1436875461748,1022
1436875461752,498
1436875461756,498
1436875461760,498
1436875461764,1023
1436875461768,499
1436875461772,499
1436875461776,499
1436875461780,1023
1436875461784,499
1436875461788,499
1436875461792,500
1436875461796,500
1436875461800,500
1436875461804,500
1436875461808,500
1436875461812,500
1436875461816,500
1436875461820,500
1436875461824,500
1436875461828,500
1436875461832,500
1436875461836,500
1436875461840,500
1436875461844,501
1436875461848,501
1436875461852,500
1436875461856,500
1436875461860,500
1436875461864,500
1436875461868,501
1436875461872,501
1436875461876,501
1436875461880,501
1436875461884,501
1436875461888,500
1436875461892,500
1436875461896,500
1436875461900,500
1436875461904,501
1436875461908,501
1436875461912,501
1436875461916,501
1436875461920,501
1436875461924,501
1436875461928,501
1436875461932,500
1436875461936,500
1436875461940,500
1436875461944,500
1436875461948,501
1436875461952,501
1436875461956,501
1436875461960,501
1436875461964,501
1436875461968,501
1436875461972,501
1436875461976,501
1436875461980,501
1436875461984,501
1436875461988,501
1436875461992,501
1436875461996,501
1436875462000,501
1436875462004,501
1436875462008,502
1436875462012,502
1436875462016,1022
1436875462020,501
1436875462024,501
1436875462028,501
1436875462032,501
1436875462036,500
1436875462040,500
1436875462044,500
1436875462048,501
1436875462052,501
1436875462056,502
1436875462060,502
1436875462064,1022
1436875462068,502
1436875462072,502
1436875462076,502
1436875462080,1023
1436875462084,503
1436875462088,503
1436875462092,503
1436875462096,1023
1436875462100,503
1436875462104,503
1436875462108,503
1436875462112,1023
1436875462116,503
1436875462120,503
1436875462124,503
1436875462128,1023
1436875462132,503
1436875462136,503
1436875462140,503
1436875462144,1023
1436875462148,503
1436875462152,503
1436875462156,503
1436875462160,504
1436875462164,504
1436875462168,505
1436875462172,504
1436875462176,501
1436875462180,496
1436875462184,490
1436875462188,485
1436875462192,1023
1436875462196,487
1436875462200,497
1436875462204,512
1436875462209,533
1436875462213,556
1436875462217,579
1436875462221,1022
1436875462225,606
1436875462229,600
1436875462233,580
1436875462237,552
1436875462241,524
1436875462245,505
1436875462249,496
1436875462253,1023
1436875462257,497
1436875462261,500
1436875462265,500
1436875462269,500
1436875462273,499
1436875462277,499
1436875462281,499
1436875462285,1023
1436875462289,499
1436875462293,499
1436875462297,499
1436875462301,500
1436875462305,500
1436875462309,500
1436875462313,500
1436875462317,500
1436875462321,500
1436875462325,500
1436875462329,500
1436875462333,500
1436875462337,500
1436875462341,500
1436875462345,501
1436875462349,501
1436875462353,501
1436875462357,502
1436875462361,502
1436875462365,1022
1436875462369,502
1436875462373,503
1436875462377,503
1436875462381,1023
1436875462385,503
1436875462389,504
1436875462393,504
1436875462397,504
1436875462401,505
1436875462405,505
1436875462409,506
1436875462413,1022
1436875462417,507
1436875462421,507
1436875462425,507
1436875462429,1023
1436875462433,507
1436875462437,507
1436875462441,507
1436875462445,508
1436875462449,508
1436875462453,508
1436875462457,508
1436875462461,507
1436875462465,507
1436875462469,506
1436875462473,1022
1436875462477,505
1436875462481,504
1436875462485,504
1436875462489,1023
1436875462493,503
1436875462497,503
1436875462501,502
1436875462505,1022
1436875462509,502
1436875462513,502
1436875462517,502
1436875462521,1022
1436875462525,502
1436875462529,502
1436875462533,502
1436875462537,1022
1436875462541,502
1436875462545,502
1436875462549,502
1436875462553,1023
1436875462557,503
1436875462561,504
1436875462565,503
1436875462569,1023
1436875462573,503
1436875462577,503
1436875462581,503
1436875462585,1023
1436875462589,503
1436875462593,503
1436875462597,503
1436875462601,504
1436875462605,504
1436875462609,504
1436875462613,504
1436875462617,504
1436875462621,504
1436875462625,504
1436875462629,504
1436875462633,504
1436875462637,504
1436875462641,504
1436875462645,504
1436875462649,504
1436875462653,504
1436875462657,504
1436875462661,504
1436875462665,504
1436875462669,504
1436875462673,504
1436875462677,504
1436875462681,504
1436875462685,503
1436875462689,503
1436875462693,503
1436875462697,1023
1436875462701,503
1436875462705,504
1436875462709,504
1436875462713,504
1436875462717,503
1436875462721,503
1436875462725,1023
1436875462729,503
1436875462733,504
1436875462737,504
1436875462741,504
1436875462745,504
1436875462749,504
1436875462753,504
1436875462757,504
1436875462761,504
1436875462765,504
1436875462769,504
1436875462773,504
1436875462777,504
1436875462781,504
1436875462785,504
1436875462789,504
1436875462793,504
1436875462797,504
1436875462801,504
1436875462805,504
1436875462809,504
1436875462813,504
1436875462817,504
1436875462821,504
1436875462825,504
1436875462829,505
1436875462833,505
1436875462837,1022
1436875462841,506
1436875462845,506
1436875462849,506
1436875462853,1022
1436875462857,506
1436875462861,506
1436875462865,506
1436875462869,505
1436875462873,505
1436875462877,505
1436875462881,505
1436875462885,505
1436875462889,505
1436875462893,505
1436875462897,505
1436875462901,505
1436875462905,505
1436875462909,505
1436875462913,506
1436875462917,1022
1436875462921,507
1436875462925,507
1436875462929,505
1436875462933,1022
1436875462937,496
1436875462941,491
1436875462945,487
1436875462949,1022
1436875462953,491
1436875462957,502
1436875462961,518
1436875462965,539
1436875462969,563
1436875462973,585
1436875462977,1022
1436875462981,607
1436875462985,598
1436875462989,576
1436875462993,1023
1436875462997,522
1436875463001,505
1436875463005,498
1436875463009,1022
1436875463013,500
1436875463017,502
1436875463021,502
1436875463025,1022
1436875463029,501
1436875463033,501
1436875463037,500
1436875463041,500
1436875463045,500
1436875463049,501
1436875463053,501
1436875463057,1022
1436875463061,502
1436875463065,502
1436875463069,501
1436875463073,501
1436875463077,501
1436875463081,501
1436875463085,502
1436875463089,1022
1436875463093,502
1436875463097,502
1436875463101,502
1436875463105,1022
1436875463109,503
1436875463113,503
1436875463117,503
1436875463121,1023
1436875463125,503
1436875463129,503
1436875463133,503
1436875463137,504
1436875463141,504
1436875463145,504
1436875463149,504
1436875463153,505
1436875463157,505
1436875463161,506
1436875463165,506
1436875463169,1022
1436875463173,507
1436875463177,507
1436875463181,507
1436875463185,1023
1436875463189,507
1436875463193,507
1436875463197,507
1436875463201,508
1436875463205,508
1436875463209,508
1436875463213,508
1436875463216,508
1436875463220,507
1436875463224,507
1436875463228,1022
1436875463232,506
1436875463236,505
1436875463240,505
1436875463244,504
1436875463248,504
1436875463252,504
1436875463256,503
1436875463260,1023
1436875463264,503
1436875463268,503
1436875463272,503
1436875463276,1023
1436875463280,503
1436875463284,503
1436875463288,503
1436875463292,504
1436875463296,504
1436875463300,505
1436875463304,505
1436875463308,505
1436875463312,505
1436875463316,504
1436875463320,504
1436875463324,504
1436875463328,504
1436875463332,504
1436875463336,505
1436875463340,505
1436875463344,505
1436875463348,505
1436875463352,505
1436875463356,505
1436875463360,505
1436875463364,505
1436875463368,505
1436875463372,505
1436875463376,505
1436875463380,505
1436875463384,505
1436875463388,505
1436875463392,505
1436875463396,505
1436875463400,505
1436875463404,505
1436875463408,505
1436875463412,505
1436875463416,505
1436875463420,1022
1436875463424,506
1436875463428,505
1436875463432,505
1436875463436,505
1436875463440,504
1436875463444,504
1436875463448,504
1436875463452,504
1436875463456,504
1436875463460,504
1436875463464,504
1436875463468,504
1436875463472,505
1436875463476,505
1436875463480,505
1436875463484,505
1436875463488,505
1436875463492,505
1436875463496,505
1436875463500,505
1436875463504,505
1436875463508,505
1436875463512,1022
1436875463516,506
1436875463520,506
1436875463524,506
1436875463528,505
1436875463532,505
1436875463536,505
1436875463540,505
1436875463544,505
1436875463548,506
1436875463552,506
1436875463556,506
1436875463560,1022
1436875463564,505
1436875463568,505
1436875463572,504
1436875463576,504
1436875463580,504
1436875463584,504
1436875463588,504
1436875463592,504
1436875463596,504
1436875463600,504
1436875463604,504
1436875463608,504
1436875463612,504
1436875463616,504
1436875463620,504
1436875463624,505
1436875463628,505
1436875463632,505
1436875463636,506
1436875463640,1022
1436875463644,506
1436875463648,506
1436875463652,507
1436875463656,1023
1436875463660,506
1436875463664,506
1436875463668,506
1436875463672,1022
1436875463676,506
1436875463680,506
1436875463684,506
1436875463688,1022
1436875463692,506
1436875463696,506
1436875463700,506
1436875463704,1022
1436875463708,506
1436875463712,506
1436875463716,506
1436875463720,507
1436875463724,507
1436875463728,506
1436875463732,1023
1436875463736,499
1436875463740,493
1436875463744,489
1436875463748,1023
1436875463752,490
1436875463756,499
1436875463760,514
1436875463764,533
1436875463768,554
1436875463772,577
1436875463776,596
1436875463780,605
1436875463784,600
1436875463788,581
1436875463792,554
1436875463796,528
1436875463800,509
1436875463804,499
1436875463808,497
1436875463812,1023
1436875463816,501
1436875463820,501
1436875463824,501
1436875463828,500
1436875463832,500
1436875463836,500
1436875463840,500
1436875463844,500
1436875463848,500
1436875463852,500
1436875463856,500
1436875463860,500
1436875463864,500
1436875463868,501
1436875463872,501
1436875463876,501
1436875463880,501
1436875463884,501
1436875463888,501
1436875463892,501
1436875463896,501
1436875463900,502
1436875463904,502
1436875463908,1022
1436875463912,502
1436875463916,502
1436875463920,503
1436875463924,1023
1436875463928,503
1436875463932,503
1436875463936,503
1436875463940,504
1436875463944,504
1436875463948,504
1436875463952,505
1436875463956,505
1436875463960,506
1436875463964,506
1436875463968,506
1436875463972,506
1436875463976,507
1436875463980,507
1436875463984,1023
1436875463988,508
1436875463992,508
1436875463996,508
1436875464000,509
1436875464004,509
1436875464008,509
1436875464012,509
1436875464016,509
1436875464020,508
1436875464024,508
1436875464028,507
1436875464032,1023
1436875464036,506
1436875464040,506
1436875464044,505
1436875464048,505
1436875464052,504
1436875464056,504
1436875464060,504
1436875464064,504
1436875464068,504
1436875464072,504
1436875464076,504
1436875464080,504
1436875464084,504
1436875464088,504
1436875464092,504
1436875464096,504
1436875464100,504
1436875464104,505
1436875464108,505
1436875464112,505
1436875464116,505
1436875464120,505
1436875464124,505
1436875464128,505
1436875464132,505
1436875464136,505
1436875464140,506
1436875464144,1022
1436875464148,506
1436875464152,506
1436875464156,506
1436875464160,1022
1436875464164,505
1436875464168,505
1436875464172,505
1436875464176,1022
1436875464180,506
1436875464184,506
1436875464188,506
1436875464192,1022
1436875464196,506
1436875464200,506
1436875464204,506
1436875464208,1022
1436875464212,506
1436875464216,506
1436875464220,506
1436875464224,506
1436875464228,506
1436875464232,506
1436875464236,1022
1436875464240,506
1436875464244,505
1436875464248,505
1436875464252,505
1436875464256,505
1436875464260,505
1436875464264,506
1436875464268,1022
1436875464272,506
1436875464276,506
1436875464280,505
1436875464284,505
1436875464288,505
1436875464292,505
1436875464296,505
1436875464300,1022
1436875464304,506
1436875464308,506
1436875464312,506
1436875464316,505
1436875464320,505
1436875464324,505
1436875464328,505
1436875464332,505
1436875464336,505
1436875464340,505
1436875464344,505
1436875464348,505
1436875464352,505
1436875464356,505
1436875464360,505
1436875464364,505
1436875464368,505
1436875464372,506
1436875464376,506
1436875464380,1022
1436875464384,506
1436875464388,506
1436875464392,505
1436875464396,505
1436875464400,505
1436875464404,505
1436875464408,505
1436875464412,505
1436875464416,505
1436875464420,505
1436875464424,505
1436875464428,505
1436875464432,506
1436875464436,506
1436875464440,506
1436875464444,1023
1436875464448,507
1436875464452,507
1436875464456,507
1436875464460,1023
1436875464464,507
1436875464468,507
1436875464472,508
1436875464476,508
1436875464480,508
1436875464484,508
1436875464488,508
1436875464492,507
1436875464496,506
1436875464500,506
1436875464504,1022
1436875464508,506
1436875464512,506
1436875464516,506
1436875464520,1022
1436875464524,506
1436875464528,506
1436875464532,506
1436875464536,1023
1436875464540,507
1436875464544,507
1436875464548,505
1436875464552,1022
1436875464556,498
1436875464560,493
1436875464564,489
1436875464568,488
1436875464572,492
1436875464576,501
1436875464580,516
1436875464584,1023
1436875464588,558
1436875464592,580
1436875464596,598
1436875464600,605
1436875464604,598
1436875464608,578
1436875464612,551
1436875464616,524
1436875464620,506
1436875464624,498
1436875464628,497
1436875464632,500
1436875464636,502
1436875464640,502
1436875464644,502
1436875464648,1022
1436875464652,501
1436875464656,501
1436875464660,501
1436875464664,501
1436875464668,501
1436875464672,501
1436875464676,501
1436875464680,501
1436875464684,502
1436875464688,502
1436875464692,502
1436875464696,1022
1436875464700,502
1436875464704,503
1436875464708,503
1436875464712,1023
1436875464716,503
1436875464720,503
1436875464724,503
1436875464728,504
1436875464732,504
1436875464736,504
1436875464740,504
1436875464744,504
1436875464748,504
1436875464752,505
1436875464756,505
1436875464760,506
1436875464764,507
1436875464768,507
1436875464772,1023
1436875464776,507
1436875464780,507
1436875464784,507
1436875464788,1023
1436875464792,507
1436875464796,507
1436875464800,507
1436875464804,508
1436875464808,509
1436875464812,509
1436875464816,510
1436875464820,1022
1436875464824,510
1436875464828,510
1436875464832,510
1436875464836,509
1436875464840,509
1436875464844,508
1436875464848,507
1436875464852,1023
1436875464856,506
1436875464860,506
1436875464864,505
1436875464868,504
1436875464872,504
1436875464876,504
1436875464880,503
1436875464884,1023
1436875464888,503
1436875464892,503
1436875464896,503
1436875464900,1023
1436875464904,503
1436875464908,503
1436875464912,503
1436875464916,1023
1436875464920,503
1436875464924,503
1436875464928,503
1436875464932,1023
1436875464936,503
1436875464940,504
1436875464944,503
1436875464948,1023
1436875464952,503
1436875464956,503
1436875464960,504
1436875464964,504
1436875464968,504
1436875464972,505
1436875464976,505
1436875464980,505
1436875464984,504
1436875464988,504
1436875464992,504
1436875464996,504
1436875465000,504
1436875465004,504
1436875465008,505
1436875465012,505
1436875465016,504
1436875465020,504
1436875465024,504
1436875465028,504
1436875465032,504
1436875465036,504
1436875465040,1023
1436875465044,503
1436875465048,502
1436875465052,503
1436875465056,1023
1436875465060,504
1436875465064,504
1436875465068,504
1436875465072,504
1436875465076,504
1436875465080,503
1436875465084,503
1436875465088,1023
1436875465092,503
1436875465096,503
1436875465100,503
1436875465104,1023
1436875465108,503
1436875465112,503
1436875465116,503
1436875465120,1023
1436875465124,503
1436875465128,504
1436875465132,504
1436875465136,504
1436875465140,504
1436875465144,503
1436875465148,503
1436875465152,1023
1436875465156,503
1436875465160,503
1436875465164,503
1436875465168,1023
1436875465172,502
1436875465176,502
1436875465180,502
1436875465184,1023
1436875465188,503
1436875465192,503
1436875465196,503
1436875465200,1023
1436875465204,503
1436875465208,503
1436875465212,503
1436875465216,1023
1436875465220,503
1436875465224,503
1436875465228,503
1436875465233,503
1436875465237,503
1436875465241,503
1436875465245,1023
1436875465249,504
1436875465253,504
1436875465257,504
1436875465261,504
1436875465265,504
1436875465269,505
1436875465273,505
1436875465277,505
1436875465281,505
1436875465285,505
1436875465289,504
1436875465293,504
1436875465297,503
1436875465301,503
1436875465305,503
1436875465309,504
1436875465313,504
1436875465317,504
1436875465321,504
1436875465325,505
1436875465329,505
1436875465333,505
1436875465337,506
1436875465341,1022
1436875465345,505
1436875465349,503
1436875465353,499
1436875465357,493
1436875465361,488
1436875465365,484
1436875465369,485
1436875465373,493
1436875465377,508
1436875465381,528
1436875465385,551
1436875465389,576
1436875465393,598
1436875465397,611
1436875465401,610
1436875465405,593
1436875465409,566
1436875465413,536
1436875465417,512
1436875465421,1023
1436875465425,495
1436875465429,497
1436875465433,500
1436875465437,1022
1436875465441,502
1436875465445,501
1436875465449,501
1436875465453,500
1436875465457,500
1436875465461,500
1436875465465,500
1436875465469,501
1436875465473,501
1436875465477,502
1436875465481,502
1436875465485,502
1436875465489,502
1436875465493,502
1436875465497,1022
1436875465501,502
1436875465505,502
1436875465509,503
1436875465513,1023
1436875465517,503
1436875465521,503
1436875465525,504
1436875465529,504
1436875465533,504
1436875465537,504
1436875465541,504
1436875465545,504
1436875465549,504
1436875465553,505
1436875465557,505
1436875465561,1022
1436875465565,506
1436875465569,507
1436875465573,507
1436875465577,508
1436875465581,508
1436875465585,509
1436875465589,509
1436875465593,509
1436875465597,509
1436875465601,509
1436875465605,509
1436875465609,509
1436875465613,510
1436875465617,510
1436875465621,510
1436875465625,1022
1436875465629,510
1436875465633,510
1436875465637,509
1436875465641,508
1436875465645,507
1436875465649,506
1436875465653,506
1436875465657,505
1436875465661,504
1436875465665,503
1436875465669,502
1436875465673,501
1436875465677,501
1436875465681,501
1436875465685,501
1436875465689,1022
1436875465693,502
1436875465697,502
1436875465701,502
1436875465705,1022
1436875465709,501
1436875465713,502
1436875465717,502
1436875465721,1022
1436875465725,503
1436875465729,503
1436875465733,503
1436875465737,503
1436875465741,503
1436875465745,503
1436875465749,1023
1436875465753,503
1436875465757,503
1436875465761,504
1436875465765,504
1436875465769,504
1436875465773,504
1436875465777,504
1436875465781,504
1436875465785,504
1436875465789,504
1436875465793,504
1436875465797,1023
1436875465801,503
1436875465805,503
1436875465809,503
1436875465813,1023
1436875465817,503
1436875465821,504
1436875465825,504
1436875465829,504
1436875465833,504
1436875465837,504
1436875465841,504
1436875465845,504
1436875465849,504
1436875465853,504
1436875465857,504
1436875465861,504
1436875465865,504
1436875465869,504
1436875465873,504
1436875465877,504
1436875465881,504
1436875465885,504
1436875465889,504
1436875465893,504
1436875465897,504
1436875465901,504
1436875465905,504
1436875465909,505
1436875465913,505
1436875465917,504
1436875465921,504
1436875465925,1023
1436875465929,503
1436875465933,503
1436875465937,504
1436875465941,504
1436875465945,505
1436875465949,504
1436875465953,504
1436875465957,504
1436875465961,504
1436875465965,504
1436875465969,504
1436875465973,504
1436875465977,504
1436875465981,504
1436875465985,504
1436875465989,504
1436875465993,504
1436875465997,504
1436875466001,504
1436875466005,505
1436875466009,505
1436875466013,506
1436875466017,1022
1436875466021,506
1436875466025,506
1436875466029,506
1436875466033,1023
1436875466037,506
1436875466041,505
1436875466045,504
1436875466049,504
1436875466053,504
1436875466057,504
1436875466061,505
1436875466065,1022
1436875466069,506
1436875466073,506
1436875466077,506
1436875466081,505
1436875466085,505
1436875466089,506
1436875466093,506
1436875466097,1023
1436875466101,507
1436875466105,507
1436875466109,505
1436875466113,501
1436875466117,496
1436875466121,489
1436875466125,485
1436875466129,485
1436875466133,491
1436875466137,504
1436875466141,522
1436875466145,545
1436875466149,571
1436875466153,595
1436875466157,611
1436875466161,1022
1436875466165,601
1436875466169,575
1436875466173,543
1436875466177,517
1436875466181,501
1436875466185,495
1436875466189,497
1436875466193,500
1436875466197,502
1436875466201,502
1436875466205,501
1436875466209,501
1436875466213,501
1436875466217,500
1436875466221,501
1436875466225,501
1436875466229,501
1436875466233,501
1436875466237,501
1436875466242,501
1436875466246,501
1436875466250,501
1436875466254,1022
1436875466258,502
1436875466262,502
1436875466266,502
1436875466270,501
1436875466274,502
1436875466278,502
1436875466282,502
1436875466286,1023
1436875466290,503
1436875466294,503
1436875466298,503
1436875466302,1023
1436875466306,503
1436875466310,503
1436875466314,504
1436875466318,505
1436875466322,505
1436875466326,506
1436875466330,506
1436875466334,1022
1436875466338,507
1436875466342,507
1436875466346,507
1436875466350,508
1436875466354,508
1436875466358,508
1436875466362,508
1436875466366,508
1436875466370,509
1436875466374,509
1436875466378,509
1436875466382,1022
1436875466386,510
1436875466390,510
1436875466394,509
1436875466398,509
1436875466402,508
1436875466406,508
1436875466410,507
1436875466414,1022
1436875466418,505
1436875466422,504
1436875466426,503
1436875466430,1022
1436875466434,502
1436875466438,502
1436875466442,502
1436875466446,1022
1436875466450,502
1436875466454,503
1436875466458,503
1436875466462,1023
1436875466466,503
1436875466470,503
1436875466474,503
1436875466478,1023
1436875466482,503
1436875466486,503
1436875466490,503
1436875466494,503
1436875466498,503
1436875466502,503
1436875466506,504
1436875466510,504
1436875466514,504
1436875466518,504
1436875466522,504
1436875466526,504
1436875466530,504
1436875466534,505
1436875466538,505
1436875466542,504
1436875466546,504
1436875466550,504
1436875466554,504
1436875466558,504
1436875466562,504
1436875466566,505
1436875466570,505
1436875466574,505
1436875466578,505
1436875466582,505
1436875466586,505
1436875466590,505
1436875466594,505
1436875466598,505
1436875466602,505
1436875466606,505
1436875466610,505
1436875466614,505
1436875466618,505
1436875466622,505
1436875466626,505
1436875466630,505
1436875466634,505
1436875466638,506
1436875466642,506
1436875466646,506
1436875466650,1022
1436875466654,506
1436875466658,506
1436875466662,505
1436875466666,505
1436875466670,505
1436875466674,505
1436875466678,506
1436875466682,1022
1436875466686,506
1436875466690,506
1436875466694,506
1436875466698,505
1436875466702,505
1436875466706,505
1436875466710,505
1436875466714,505
1436875466718,505
1436875466722,505
1436875466726,505
1436875466730,1022
1436875466734,506
1436875466738,506
1436875466742,506
1436875466746,507
1436875466750,507
1436875466754,508
1436875466758,508
1436875466762,509
1436875466766,509
1436875466770,509
1436875466774,509
1436875466778,508
1436875466782,508
1436875466786,508
1436875466790,1023
1436875466794,506
1436875466798,506
1436875466802,506
1436875466806,1022
1436875466810,507
1436875466814,507
1436875466818,508
1436875466822,508
1436875466826,508
1436875466830,508
1436875466834,508
1436875466838,509
1436875466842,509
1436875466846,509
1436875466850,508
1436875466854,504
1436875466858,499
1436875466862,493
1436875466866,489
1436875466870,489
1436875466874,494
1436875466878,506
1436875466882,523
1436875466886,545
1436875466890,570
1436875466894,594
1436875466898,611
1436875466902,1023
1436875466906,605
1436875466910,580
1436875466914,550
1436875466918,1023
1436875466922,506
1436875466926,500
1436875466930,500
1436875466934,1023
1436875466938,505
1436875466942,505
1436875466946,505
1436875466950,504
1436875466954,504
1436875466958,504
1436875466962,504
1436875466966,504
1436875466970,504
1436875466974,504
1436875466978,504
1436875466982,504
1436875466986,504
1436875466990,504
1436875466994,504
1436875466998,504
1436875467002,504
1436875467006,505
1436875467010,505
1436875467014,505
1436875467018,505
1436875467022,505
1436875467026,505
1436875467030,505
1436875467034,506
1436875467038,506
1436875467042,1022
1436875467046,506
1436875467050,506
1436875467054,506
1436875467058,1023
1436875467062,507
1436875467066,508
1436875467070,508
1436875467074,509
1436875467078,509
1436875467082,509
1436875467086,510
1436875467090,1022
1436875467094,510
1436875467098,510
1436875467102,510
1436875467106,1023
1436875467110,511
1436875467114,512
1436875467118,512
1436875467122,512
1436875467126,512
1436875467130,512
1436875467134,512
1436875467138,512
1436875467142,511
1436875467146,510
1436875467150,509
1436875467154,509
1436875467158,508
1436875467162,508
1436875467166,508
1436875467170,1023
1436875467174,507
1436875467178,507
1436875467182,506
1436875467186,1022
1436875467190,506
1436875467194,506
1436875467198,506
1436875467202,1022
1436875467206,506
1436875467210,506
1436875467214,506
1436875467218,1022
1436875467222,506
1436875467226,507
1436875467230,507
1436875467234,1023
1436875467238,507
1436875467242,507
1436875467246,507
1436875467249,508
1436875467253,508
1436875467257,508
1436875467261,508
1436875467265,508
1436875467269,508
1436875467273,508
1436875467277,508
1436875467281,509
1436875467285,509
1436875467289,509
1436875467293,508
1436875467297,508
1436875467301,508
1436875467305,507
1436875467309,508
1436875467313,508
1436875467317,508
1436875467321,508
1436875467325,508
1436875467329,508
1436875467333,508
1436875467337,508
1436875467341,508
1436875467345,508
1436875467349,508
1436875467353,508
1436875467357,508
1436875467361,508
1436875467365,508
1436875467369,508
1436875467373,508
1436875467377,508
1436875467381,508
1436875467385,508
1436875467389,508
1436875467393,508
1436875467397,508
1436875467401,508
1436875467405,508
1436875467409,508
1436875467413,508
1436875467417,508
1436875467421,508
1436875467425,509
1436875467429,509
1436875467433,508
1436875467437,508
1436875467441,508
1436875467445,508
1436875467449,508
1436875467453,508
1436875467457,508
1436875467461,508
1436875467465,508
1436875467469,1023
1436875467473,508
1436875467477,508
1436875467481,508
1436875467485,508
1436875467489,508
1436875467493,508
1436875467497,508
1436875467501,508
1436875467505,509
1436875467509,509
1436875467513,509
1436875467517,509
1436875467521,510
1436875467525,510
1436875467529,1022
1436875467533,510
1436875467537,510
1436875467541,510
1436875467545,509
1436875467549,509
1436875467553,508
1436875467557,508
1436875467561,508
1436875467565,508
1436875467569,509
1436875467573,509
1436875467577,509
1436875467581,509
1436875467585,509
1436875467589,508
1436875467593,508
1436875467597,508
1436875467601,509
1436875467605,509
1436875467609,1022
1436875467613,509
1436875467617,508
1436875467621,505
1436875467625,500
1436875467629,495
1436875467633,491
1436875467637,490
1436875467641,1023
1436875467645,505
1436875467649,521
1436875467653,542
1436875467657,565
1436875467661,587
1436875467665,604
1436875467669,609
1436875467673,600
1436875467677,578
1436875467681,550
1436875467685,525
1436875467689,508
1436875467693,501
1436875467697,501
1436875467701,503
1436875467705,504
1436875467709,505
1436875467713,504
1436875467717,504
1436875467721,504
1436875467725,503
1436875467729,503
1436875467733,503
1436875467737,1023
1436875467741,503
1436875467745,504
1436875467749,504
1436875467753,504
1436875467757,504
1436875467761,504
1436875467765,504
1436875467769,504
1436875467773,505
1436875467777,505
1436875467781,505
1436875467785,505
1436875467789,505
1436875467793,505
1436875467797,504
1436875467801,504
1436875467805,505
1436875467809,505
1436875467813,1022
1436875467817,506
1436875467821,507
1436875467825,507
1436875467829,1023
1436875467833,508
1436875467837,508
1436875467841,508
1436875467845,509
1436875467849,509
1436875467853,509
1436875467857,509
1436875467861,1022
1436875467865,510
1436875467869,510
1436875467873,510
1436875467877,1022
1436875467881,511
1436875467885,511
1436875467889,511
1436875467893,512
1436875467897,512
1436875467901,511
1436875467905,511
1436875467909,1022
1436875467913,510
1436875467917,509
1436875467921,509
1436875467925,508
1436875467929,508
1436875467933,507
1436875467937,507
1436875467941,1023
1436875467945,507
1436875467949,506
1436875467953,506
1436875467957,1022
1436875467961,506
1436875467965,507
1436875467969,507
1436875467973,1023
1436875467977,507
1436875467981,506
1436875467985,506
1436875467989,1023
1436875467993,507
1436875467997,507
1436875468001,507
1436875468003,507
1436875468007,507
1436875468011,507
1436875468015,1023
1436875468019,507
1436875468023,507
1436875468027,507
1436875468031,1023
1436875468035,507
1436875468039,507
1436875468043,506
1436875468047,1022
1436875468051,506
1436875468055,506
1436875468059,507
1436875468063,1023
1436875468067,507
1436875468071,507
1436875468075,507
1436875468079,1023
1436875468083,507
1436875468087,507
1436875468091,507
1436875468095,1023
1436875468099,507
1436875468103,507
1436875468107,507
1436875468111,1023
1436875468115,507
1436875468119,507
1436875468123,507
1436875468127,1023
1436875468131,507
1436875468135,507
1436875468139,507
1436875468143,1023
1436875468147,507
1436875468151,507
1436875468155,507
1436875468159,1023
1436875468163,506
1436875468167,506
1436875468171,506
1436875468175,1022
1436875468179,506
1436875468183,506
1436875468187,506
1436875468191,1022
1436875468195,506
1436875468199,506
1436875468203,506
1436875468207,1023
1436875468211,507
1436875468215,506
1436875468219,506
1436875468223,1022
1436875468227,506
1436875468231,507
1436875468235,507
1436875468239,1023
1436875468243,507
1436875468247,507
1436875468251,507
1436875468253,507
1436875468257,506
1436875468261,506
1436875468265,1022
1436875468269,507
1436875468273,507
1436875468277,507
1436875468281,1023
1436875468285,506
1436875468289,506
1436875468293,506
1436875468297,505
1436875468301,506
1436875468305,506
1436875468309,506
1436875468313,1022
1436875468317,506
1436875468321,506
1436875468325,506
1436875468329,1022
1436875468333,507
1436875468337,507
1436875468341,507
1436875468345,508
1436875468349,508
1436875468353,508
1436875468357,508
1436875468361,508
1436875468365,508
1436875468369,508
1436875468373,508
1436875468377,508
1436875468381,508
1436875468385,508
1436875468389,507
1436875468393,1023
1436875468397,507
1436875468401,508
1436875468405,508
1436875468409,508
1436875468413,507
1436875468417,506
1436875468421,506
1436875468425,1022
1436875468429,507
1436875468433,508
1436875468437,509
1436875468441,509
1436875468445,507
1436875468449,504
1436875468453,499
1436875468457,1022
1436875468461,490
1436875468465,490
1436875468469,495
1436875468473,1022
1436875468477,522
1436875468481,542
1436875468485,565
1436875468489,1023
1436875468493,603
1436875468497,608
1436875468501,598
1436875468505,576
1436875468509,548
1436875468513,523
1436875468517,1023
1436875468521,500
1436875468525,500
1436875468529,503
1436875468533,504
1436875468537,504
1436875468541,503
1436875468545,502
1436875468549,1022
1436875468553,502
1436875468557,502
1436875468561,502
1436875468565,1023
1436875468569,503
1436875468573,503
1436875468577,503
1436875468581,1023
1436875468585,503
1436875468589,503
1436875468593,503
1436875468597,1023
1436875468601,503
1436875468605,503
1436875468609,503
1436875468613,1023
1436875468617,503
1436875468621,504
1436875468625,504
1436875468629,504
1436875468633,504
1436875468637,504
1436875468641,505
1436875468645,505
1436875468649,505
1436875468653,505
1436875468657,505
1436875468661,1022
1436875468665,506
1436875468669,506
1436875468673,507
1436875468677,1023
1436875468681,507
1436875468685,507
1436875468689,507
1436875468693,508
1436875468697,508
1436875468701,508
1436875468705,508
1436875468709,508
1436875468713,509
1436875468717,509
1436875468721,510
1436875468725,1022
1436875468729,510
1436875468733,509
1436875468737,509
1436875468741,509
1436875468745,508
1436875468749,508
1436875468753,507
1436875468757,506
1436875468761,506
1436875468765,505
1436875468769,505
1436875468773,505
1436875468777,505
1436875468781,505
1436875468785,505
1436875468789,505
1436875468793,505
1436875468797,505
1436875468801,505
1436875468805,505
1436875468809,505
1436875468813,505
1436875468817,505
1436875468821,505
1436875468825,505
1436875468829,505
1436875468833,505
1436875468837,505
1436875468841,506
1436875468845,506
1436875468849,1022
1436875468853,506
1436875468857,506
1436875468861,506
1436875468865,1022
1436875468869,506
1436875468873,506
1436875468877,506
1436875468881,1022
1436875468885,506
1436875468889,506
1436875468893,506
1436875468897,1022
1436875468901,506
1436875468905,506
1436875468909,506
1436875468913,1022
1436875468917,505
1436875468921,505
1436875468925,505
1436875468929,505
1436875468933,505
1436875468937,505
1436875468941,506
1436875468945,1022
1436875468949,506
1436875468953,506
1436875468957,506
1436875468961,1022
1436875468965,506
1436875468969,506
1436875468973,506
1436875468977,1022
1436875468981,506
1436875468985,506
1436875468989,505
1436875468993,505
1436875468997,505
1436875469001,505
1436875469005,505
1436875469012,505
1436875469016,505
1436875469020,505
1436875469024,505
1436875469028,505
1436875469032,505
1436875469036,505
1436875469040,505
1436875469044,505
1436875469048,505
1436875469052,505
1436875469056,505
1436875469060,506
1436875469064,506
1436875469068,506
1436875469072,505
1436875469076,505
1436875469080,505
1436875469084,505
1436875469088,505
1436875469092,505
1436875469096,506
1436875469100,506
1436875469104,505
1436875469108,505
1436875469112,505
1436875469116,506
1436875469120,1022
1436875469124,506
1436875469128,505
1436875469132,505
1436875469136,505
1436875469140,505
1436875469144,505
1436875469148,505
1436875469152,1022
1436875469156,506
1436875469160,506
1436875469164,506
1436875469168,1022
1436875469172,505
1436875469176,505
1436875469180,505
1436875469184,505
1436875469188,505
1436875469192,505
1436875469196,506
1436875469200,1022
1436875469204,507
1436875469208,507
1436875469212,507
1436875469216,1023
1436875469220,507
1436875469224,507
1436875469228,507
1436875469232,1023
1436875469236,507
1436875469240,507
1436875469244,507
1436875469248,1022
1436875469252,507
1436875469256,507
1436875469260,507
1436875469264,507
1436875469268,506
1436875469272,506
1436875469276,1022
1436875469280,507
1436875469284,507
1436875469288,507
1436875469292,508
1436875469296,507
1436875469300,506
1436875469304,503
1436875469308,1022
1436875469312,493
1436875469316,489
1436875469320,489
1436875469324,1022
1436875469328,505
1436875469332,521
1436875469336,541
1436875469340,1023
1436875469344,584
1436875469348,600
1436875469352,604
1436875469356,1023
1436875469360,573
1436875469364,546
1436875469368,521
1436875469372,505
1436875469376,499
1436875469380,500
1436875469384,502
1436875469388,504
1436875469392,504
1436875469396,503
1436875469400,502
1436875469404,1022
1436875469408,502
1436875469412,502
1436875469416,502
1436875469420,1022
1436875469424,502
1436875469428,501
1436875469432,501
1436875469436,1022
1436875469440,502
1436875469444,503
1436875469448,503
1436875469452,1023
1436875469456,503
1436875469460,502
1436875469464,502
1436875469468,1023
1436875469472,503
1436875469476,503
1436875469480,504
1436875469484,504
1436875469488,504
1436875469492,504
1436875469496,504
1436875469500,504
1436875469504,504
1436875469508,505
1436875469512,505
1436875469516,506
1436875469520,506
1436875469524,506
1436875469528,1022
1436875469532,507
1436875469536,507
1436875469540,507
1436875469544,1023
1436875469548,507
1436875469552,507
1436875469556,507
1436875469560,508
1436875469564,508
1436875469568,508
1436875469572,509
1436875469576,509
1436875469580,509
1436875469584,509
1436875469588,509
1436875469592,508
1436875469596,507
1436875469600,506
1436875469604,506
1436875469608,505
1436875469612,504
1436875469616,504
1436875469620,504
1436875469624,504
1436875469628,504
1436875469632,503
1436875469636,503
1436875469640,1022
1436875469644,502
1436875469648,502
1436875469652,502
1436875469656,1022
1436875469660,502
1436875469664,502
1436875469668,502
1436875469672,1022
1436875469676,502
1436875469680,503
1436875469684,503
1436875469688,1023
1436875469692,503
1436875469696,503
1436875469700,503
1436875469704,1023
1436875469708,503
1436875469712,504
1436875469716,504
1436875469720,504
1436875469724,504
1436875469728,503
1436875469732,503
1436875469736,1023
1436875469740,503
1436875469744,503
1436875469748,503
1436875469752,504
1436875469756,503
1436875469760,503
1436875469764,503
1436875469768,503
1436875469772,503
1436875469776,503
1436875469780,504
1436875469784,503
1436875469788,503
1436875469792,503
1436875469796,1022
1436875469800,502
1436875469804,502
1436875469808,502
1436875469812,1022
1436875469816,503
1436875469820,503
1436875469824,503
1436875469828,1023
1436875469832,503
1436875469836,503
1436875469840,503
1436875469844,1023
1436875469848,502
1436875469852,502
1436875469856,502
1436875469860,1023
1436875469864,503
1436875469868,503
1436875469872,503
1436875469876,1022
1436875469880,502
1436875469884,502
1436875469888,502
1436875469892,1022
1436875469896,502
1436875469900,503
1436875469904,503
1436875469908,1023
1436875469912,503
1436875469916,503
1436875469920,503
1436875469924,1022
1436875469928,502
1436875469932,503
1436875469936,503
1436875469940,1023
1436875469944,503
1436875469948,503
1436875469952,502
1436875469956,1023
1436875469960,503
1436875469964,503
1436875469968,503
1436875469972,1023
1436875469976,503
1436875469980,503
1436875469984,503
1436875469988,1023
1436875469992,503
1436875469996,503
1436875470000,503
1436875470004,1023
1436875470008,504
1436875470012,504
1436875470016,504
1436875470020,504
1436875470024,504
1436875470028,503
1436875470032,1023
1436875470036,503
1436875470040,504
1436875470044,504
1436875470048,504
1436875470052,503
1436875470056,503
1436875470060,503
1436875470064,1022
1436875470068,502
1436875470072,502
1436875470076,503
1436875470080,1023
1436875470084,503
1436875470088,503
1436875470092,503
1436875470096,504
1436875470100,504
1436875470104,503
1436875470108,501
1436875470112,497
1436875470116,491
1436875470120,485
1436875470124,483
1436875470128,485
1436875470132,494
1436875470136,509
1436875470140,529
1436875470144,552
1436875470148,576
1436875470152,596
1436875470156,607
1436875470160,604
1436875470164,586
1436875470168,558
1436875470172,529
1436875470176,1023
1436875470180,496
1436875470184,494
1436875470188,497
1436875470192,1023
1436875470196,500
1436875470200,499
1436875470204,499
1436875470208,1023
1436875470212,499
1436875470216,499
1436875470220,499
1436875470224,1022
1436875470228,498
1436875470232,499
1436875470236,499
1436875470240,500
1436875470244,500
1436875470248,500
1436875470252,500
1436875470256,500
1436875470260,500
1436875470264,501
1436875470268,501
1436875470272,501
1436875470276,501
1436875470280,501
1436875470284,501
1436875470288,501
1436875470292,502
1436875470296,502
1436875470300,1023
1436875470304,503
1436875470308,503
1436875470312,504
1436875470316,504
1436875470320,505
1436875470324,505
1436875470328,506
1436875470332,1022
1436875470336,506
1436875470340,506
1436875470344,506
1436875470348,1022
1436875470352,506
1436875470356,507
1436875470360,507
1436875470364,1023
1436875470368,508
1436875470372,508
1436875470376,509
1436875470380,509
1436875470384,509
1436875470388,508
1436875470392,508
1436875470396,1023
1436875470400,507
1436875470404,506
1436875470408,505
1436875470412,504
1436875470416,504
1436875470420,503
1436875470424,502
1436875470428,1022
1436875470432,501
1436875470436,501
1436875470440,501
1436875470444,501
1436875470448,501
1436875470452,501
1436875470456,501
1436875470460,501
1436875470464,501
1436875470468,501
1436875470472,501
1436875470476,501
1436875470480,501
1436875470484,502
1436875470488,502
1436875470492,1022
1436875470496,502
1436875470500,502
1436875470504,502
1436875470508,1022
1436875470512,502
1436875470516,503
1436875470520,503
1436875470524,503
1436875470528,503
1436875470532,503
1436875470536,1023
1436875470540,503
1436875470544,503
1436875470548,503
1436875470552,1023
1436875470556,503
1436875470560,503
1436875470564,503
1436875470568,1023
1436875470572,504
1436875470576,504
1436875470580,504
1436875470584,504
1436875470588,503
1436875470592,503
1436875470596,504
1436875470600,504
1436875470604,504
1436875470608,504
1436875470612,503
1436875470616,1023
1436875470620,503
1436875470624,503
1436875470628,503
1436875470632,1023
1436875470636,503
1436875470640,503
1436875470644,503
1436875470648,1023
1436875470652,503
1436875470656,503
1436875470660,503
1436875470664,1023
1436875470668,503
1436875470672,503
1436875470676,503
1436875470680,504
1436875470684,504
1436875470688,504
1436875470692,504
1436875470696,1023
1436875470700,503
1436875470704,503
1436875470708,503
1436875470712,1023
1436875470716,503
1436875470720,503
1436875470724,503
1436875470728,1023
1436875470732,503
1436875470736,503
1436875470740,503
1436875470744,504
1436875470748,504
1436875470752,504
1436875470756,504
1436875470760,505
1436875470764,505
1436875470768,506
1436875470772,506
1436875470776,505
1436875470780,505
1436875470784,505
1436875470788,505
1436875470792,505
1436875470796,505
1436875470800,505
1436875470804,505
1436875470808,505
1436875470812,505
1436875470816,505
1436875470820,505
1436875470824,505
1436875470828,505
1436875470832,505
1436875470836,505
1436875470840,506
1436875470844,506
1436875470848,506
1436875470852,505
1436875470856,503
1436875470860,499
1436875470864,494
1436875470868,489
1436875470872,485
1436875470876,485
1436875470880,492
1436875470884,505
1436875470888,523
1436875470892,545
1436875470896,570
1436875470900,593
1436875470904,609
1436875470908,612
1436875470912,599
1436875470916,573
1436875470920,543
1436875470924,517
1436875470928,502
1436875470932,496
1436875470936,498
1436875470940,500
1436875470944,502
1436875470948,1022
1436875470952,501
1436875470956,501
1436875470960,501
1436875470964,501
1436875470968,501
1436875470972,501
1436875470976,501
1436875470980,501
1436875470984,501
1436875470988,501
1436875470992,502
1436875470996,1022
1436875471000,502
1436875471004,502
1436875471008,502
1436875471012,1022
1436875471016,502
1436875471020,502
1436875471024,503
1436875471028,503
1436875471032,503
1436875471036,503
1436875471040,1023
1436875471044,503
1436875471048,503
1436875471052,504
1436875471056,504
1436875471060,505
1436875471064,505
1436875471068,506
1436875471072,1022
1436875471076,507
1436875471080,507
1436875471084,507
1436875471088,508
1436875471092,508
1436875471096,508
1436875471100,508
1436875471104,508
1436875471108,508
1436875471112,509
1436875471116,509
1436875471120,509
1436875471124,509
1436875471128,509
1436875471132,509
1436875471136,509
1436875471140,509
1436875471144,509
1436875471148,508
1436875471152,1023
1436875471156,506
1436875471160,506
1436875471164,505
1436875471168,505
1436875471172,504
1436875471176,504
1436875471180,504
1436875471184,1023
1436875471188,503
1436875471192,503
1436875471196,503
1436875471200,1023
1436875471204,503
1436875471208,503
1436875471212,503
1436875471216,1023
1436875471220,503
1436875471224,503
1436875471228,503
1436875471232,504
1436875471236,504
1436875471240,504
1436875471244,504
1436875471248,505
1436875471252,505
1436875471256,504
1436875471260,504
1436875471264,504
1436875471268,504
1436875471272,504
1436875471276,504
1436875471280,505
1436875471284,505
1436875471288,505
1436875471292,505
1436875471296,505
1436875471300,505
1436875471304,505
1436875471308,505
1436875471312,505
1436875471316,505
1436875471320,505
1436875471324,505
1436875471328,505
1436875471332,505
1436875471336,505
1436875471340,505
1436875471344,505
1436875471348,505
1436875471352,505
1436875471356,505
1436875471360,505
1436875471364,505
1436875471368,505
1436875471372,505
1436875471376,505
1436875471380,505
1436875471384,505
1436875471388,505
1436875471392,505
1436875471396,505
1436875471400,505
1436875471404,505
1436875471408,505
1436875471412,505
1436875471416,505
1436875471420,505
1436875471424,505
1436875471428,505
1436875471432,504
1436875471436,504
1436875471440,504
1436875471444,504
1436875471448,504
1436875471452,504
1436875471456,505
1436875471460,505
1436875471464,505
1436875471468,505
1436875471472,505
1436875471476,505
1436875471480,505
1436875471484,1022
1436875471488,507
1436875471492,507
1436875471496,507
1436875471500,1023
1436875471504,507
1436875471508,506
1436875471512,506
1436875471516,1022
1436875471520,507
1436875471524,507
1436875471528,506
1436875471532,506
1436875471536,506
1436875471540,506
1436875471544,1023
1436875471548,507
1436875471552,507
1436875471556,507
1436875471560,1023
1436875471564,507
1436875471568,507
1436875471572,508
1436875471576,508
1436875471580,508
1436875471584,507
1436875471588,503
1436875471592,1022
1436875471596,492
1436875471600,488
1436875471604,487
1436875471608,492
1436875471612,503
1436875471616,520
1436875471620,542
1436875471624,1023
1436875471628,591
1436875471632,610
1436875471636,617
1436875471640,608
1436875471644,584
1436875471648,554
1436875471652,525
1436875471656,1023
1436875471660,499
1436875471664,499
1436875471668,502
1436875471672,505
1436875471676,505
1436875471680,505
1436875471684,504
1436875471688,1023
1436875471692,502
1436875471696,502
1436875471700,503
1436875471704,1023
1436875471708,504
1436875471712,504
1436875471716,504
1436875471720,504
1436875471724,504
1436875471728,504
1436875471732,504
1436875471736,505
1436875471740,505
1436875471744,505
1436875471748,505
1436875471752,505
1436875471756,505
1436875471760,505
1436875471764,505
1436875471768,1022
1436875471772,506
1436875471776,506
1436875471780,507
1436875471784,507
1436875471788,507
1436875471792,507
1436875471796,508
1436875471800,508
1436875471804,508
1436875471808,509
1436875471812,509
1436875471816,509
1436875471820,510
1436875471824,510
1436875471828,1022
1436875471832,511
1436875471836,511
1436875471840,511
1436875471844,512
1436875471848,512
1436875471852,512
1436875471856,512
1436875471860,512
1436875471864,512
1436875471868,512
1436875471872,512
1436875471876,512
1436875471880,512
1436875471884,511
1436875471888,510
1436875471892,509
1436875471896,508
1436875471900,507
1436875471904,507
1436875471908,1022
1436875471912,506
1436875471916,507
1436875471920,507
1436875471924,1023
1436875471928,507
1436875471932,507
1436875471936,507
1436875471940,1023
1436875471944,506
1436875471948,506
1436875471952,506
1436875471956,1022
1436875471960,507
1436875471964,507
1436875471968,507
1436875471972,1023
1436875471976,507
1436875471980,507
1436875471984,508
1436875471988,508
1436875471992,508
1436875471996,508
1436875472000,508
1436875472004,508
1436875472008,508
1436875472012,508
1436875472016,508
1436875472020,508
1436875472024,508
1436875472028,508
1436875472032,508
1436875472036,509
1436875472040,509
1436875472044,509
1436875472048,509
1436875472052,509
1436875472056,509
1436875472060,509
1436875472064,508
1436875472068,508
1436875472072,508
1436875472076,508
1436875472080,508
1436875472084,508
1436875472088,508
1436875472092,508
1436875472096,508
1436875472100,508
1436875472104,508
1436875472108,508
1436875472112,508
1436875472116,508
1436875472120,508
1436875472124,508
1436875472128,508
1436875472132,508
1436875472136,508
1436875472140,508
1436875472144,509
1436875472148,509
1436875472152,509
1436875472156,509
1436875472160,509
1436875472164,509
1436875472168,509
1436875472172,509
1436875472176,1022
1436875472180,509
1436875472184,509
1436875472188,509
1436875472192,508
1436875472196,508
1436875472200,509
1436875472204,509
1436875472208,509
1436875472212,509
1436875472216,509
1436875472220,510
1436875472224,1022
1436875472228,511
1436875472232,511
1436875472236,511
1436875472240,1023
1436875472244,510
1436875472248,510
1436875472252,510
1436875472256,1022
1436875472260,510
1436875472264,510
1436875472268,510
1436875472272,1022
1436875472276,510
1436875472280,510
1436875472284,510
1436875472288,510
1436875472292,511
1436875472296,511
1436875472300,1023
1436875472304,512
1436875472308,512
1436875472312,512
1436875472316,1023
1436875472320,508
1436875472324,503
1436875472328,497
1436875472332,493
1436875472336,492
1436875472340,496
1436875472344,506
1436875472348,1022
1436875472352,543
1436875472356,567
1436875472360,591
1436875472364,609
1436875472368,616
1436875472372,608
1436875472376,587
1436875472380,1022
1436875472384,531
1436875472388,512
1436875472392,504
1436875472396,504
1436875472400,506
1436875472404,508
1436875472408,508
1436875472412,508
1436875472416,508
1436875472420,508
1436875472424,508
1436875472428,1023
1436875472432,507
1436875472436,507
1436875472440,507
1436875472444,1023
1436875472448,507
1436875472452,507
1436875472456,507
1436875472460,1023
1436875472464,507
1436875472468,507
1436875472472,507
1436875472476,1023
1436875472480,507
1436875472484,508
1436875472488,508
1436875472492,508
1436875472496,508
1436875472500,508
1436875472504,508
1436875472508,509
1436875472512,509
1436875472516,509
1436875472520,509
1436875472524,509
1436875472528,510
1436875472532,510
1436875472536,511
1436875472540,511
1436875472544,512
1436875472548,512
1436875472552,512
1436875472556,512
1436875472560,512
1436875472564,512
1436875472568,512
1436875472572,513
1436875472576,513
1436875472580,513
1436875472584,1022
1436875472588,514
1436875472592,514
1436875472596,514
1436875472600,1022
1436875472604,514
1436875472608,513
1436875472612,513
1436875472616,512
1436875472620,512
1436875472624,512
1436875472628,511
1436875472632,1022
1436875472636,510
1436875472640,510
1436875472644,509
1436875472648,509
1436875472652,509
1436875472656,509
1436875472660,509
1436875472664,509
1436875472668,510
1436875472672,510
1436875472676,511
1436875472680,1022
1436875472684,510
1436875472688,510
1436875472692,509
1436875472696,1022
1436875472700,510
1436875472704,510
1436875472708,510
1436875472712,1022
1436875472716,510
1436875472720,511
1436875472724,511
1436875472728,1023
1436875472732,511
1436875472736,511
1436875472740,511
1436875472744,1023
1436875472748,511
1436875472752,511
1436875472756,511
1436875472760,1023
1436875472764,511
1436875472768,511
1436875472772,511
1436875472776,1023
1436875472780,511
1436875472784,512
1436875472788,512
1436875472792,512
1436875472796,512
1436875472800,512
1436875472804,512
1436875472808,512
1436875472812,511
1436875472816,511
1436875472820,1023
1436875472824,511
1436875472828,511
1436875472832,511
1436875472836,512
1436875472840,511
1436875472844,511
1436875472848,511
1436875472852,1023
1436875472856,511
1436875472860,511
1436875472864,511
1436875472868,1023
1436875472872,511
1436875472876,512
1436875472880,512
1436875472884,512
1436875472888,512
1436875472892,512
1436875472896,512
1436875472900,512
1436875472904,511
1436875472908,512
1436875472912,512
1436875472916,512
1436875472920,512
1436875472924,512
1436875472928,512
1436875472932,1023
1436875472936,511
1436875472940,511
1436875472944,511
1436875472948,1023
1436875472952,511
1436875472956,511
1436875472960,511
1436875472964,1023
1436875472968,512
1436875472972,512
1436875472976,512
1436875472980,512
1436875472984,512
1436875472988,512
1436875472992,513
1436875472996,513
1436875473000,513
1436875473004,513
1436875473008,513
1436875473012,513
1436875473016,513
1436875473020,513
1436875473024,513
1436875473028,512
1436875473032,513
1436875473036,513
1436875473040,513
1436875473044,513
1436875473048,513
1436875473052,513
1436875473056,512
1436875473060,512
1436875473064,512
1436875473068,512
1436875473072,513
1436875473076,513
1436875473080,513
1436875473084,514
1436875473088,513
1436875473092,511
1436875473096,506
1436875473100,501
1436875473104,496
1436875473108,494
1436875473112,496
1436875473116,504
1436875473120,1022
1436875473124,536
1436875473128,558
1436875473132,582
1436875473136,1022
1436875473140,613
1436875473144,610
1436875473148,593
1436875473152,1023
1436875473156,539
1436875473160,518
1436875473164,507
1436875473168,505
1436875473172,508
1436875473176,510
1436875473180,510
1436875473184,508
1436875473188,507
1436875473192,506
1436875473196,506
1436875473200,1022
1436875473204,506
1436875473208,506
1436875473212,507
1436875473216,1023
1436875473220,507
1436875473224,507
1436875473228,507
1436875473232,1023
1436875473236,507
1436875473240,507
1436875473244,507
1436875473248,1023
1436875473252,507
1436875473256,507
1436875473260,507
1436875473264,508
1436875473268,508
1436875473272,508
1436875473276,508
1436875473280,508
1436875473284,508
1436875473288,508
1436875473292,509
1436875473296,509
1436875473300,509
1436875473304,509
1436875473308,509
1436875473312,510
1436875473316,510
1436875473320,510
1436875473324,1023
1436875473328,511
1436875473332,511
1436875473336,511
1436875473340,512
1436875473344,512
1436875473348,512
1436875473352,512
1436875473356,512
1436875473360,512
1436875473364,513
1436875473368,513
1436875473372,513
1436875473376,513
1436875473380,512
1436875473384,512
1436875473388,512
1436875473392,511
1436875473396,510
1436875473400,510
1436875473404,1022
1436875473408,509
1436875473412,509
1436875473416,509
1436875473420,509
1436875473424,509
1436875473428,509
1436875473432,509
1436875473436,509
1436875473440,509
1436875473444,509
1436875473448,509
1436875473452,509
1436875473456,509
1436875473460,509
1436875473464,509
1436875473468,509
1436875473472,509
1436875473476,509
1436875473480,509
1436875473484,1022
1436875473488,510
1436875473492,510
1436875473496,510
1436875473500,1022
1436875473504,510
1436875473508,510
1436875473512,510
1436875473516,1022
1436875473520,510
1436875473524,510
1436875473528,510
1436875473532,1022
1436875473536,510
1436875473540,510
1436875473544,510
1436875473548,510
1436875473552,510
1436875473556,510
1436875473560,1022
1436875473564,509
1436875473568,509
1436875473572,509
1436875473576,509
1436875473580,509
1436875473584,509
1436875473588,509
1436875473592,509
1436875473596,509
1436875473600,509
1436875473604,509
1436875473608,509
1436875473612,509
1436875473616,509
1436875473620,508
1436875473624,508
1436875473628,508
1436875473632,508
1436875473636,508
1436875473640,508
1436875473644,509
1436875473648,509
1436875473652,508
1436875473656,508
1436875473660,508
1436875473664,508
1436875473668,509
1436875473672,509
1436875473676,510
1436875473680,510
1436875473684,509
1436875473688,509
1436875473692,509
1436875473696,508
1436875473700,509
1436875473704,509
1436875473708,509
1436875473712,508
1436875473716,508
1436875473720,508
1436875473724,508
1436875473728,508
1436875473732,509
1436875473736,508
1436875473740,508
1436875473744,508
1436875473748,508
1436875473752,508
1436875473756,509
1436875473760,509
1436875473764,508
1436875473768,508
1436875473772,508
1436875473776,508
1436875473780,508
1436875473784,509
1436875473788,509
1436875473792,509
1436875473796,510
1436875473800,510
1436875473804,511
1436875473808,511
1436875473812,1023
1436875473816,511
1436875473820,511
1436875473824,511
1436875473828,1023
1436875473832,510
1436875473836,510
1436875473840,510
1436875473844,1022
1436875473848,510
1436875473852,510
1436875473856,510
1436875473860,1022
1436875473864,510
1436875473868,510
1436875473872,510
1436875473876,1022
1436875473880,510
1436875473884,510
1436875473888,510
1436875473892,1023
1436875473896,511
1436875473900,510
1436875473904,508
1436875473908,504
1436875473912,498
1436875473916,493
1436875473920,491
1436875473924,493
1436875473928,501
1436875473932,514
1436875473936,533
1436875473940,556
1436875473944,580
1436875473948,600
1436875473952,611
1436875473956,609
1436875473960,592
1436875473964,565
1436875473968,537
1436875473972,1023
1436875473976,504
1436875473980,501
1436875473984,503
1436875473988,505
1436875473992,506
1436875473996,505
1436875474000,505
1436875474004,505
1436875474008,504
1436875474012,504
1436875474016,504
1436875474020,504
1436875474024,504
1436875474028,504
1436875474032,504
1436875474036,504
1436875474040,504
1436875474044,504
1436875474048,505
1436875474052,505
1436875474056,505
1436875474060,505
1436875474064,505
1436875474068,505
1436875474072,505
1436875474076,505
1436875474080,505
1436875474084,505
1436875474088,505
1436875474092,505
1436875474096,505
1436875474100,505
1436875474104,506
1436875474108,506
1436875474112,1022
1436875474116,506
1436875474120,507
1436875474124,507
1436875474128,508
1436875474132,508
1436875474136,509
1436875474140,509
1436875474144,509
1436875474148,510
1436875474152,509
1436875474156,509
1436875474160,509
1436875474164,510
1436875474168,510
1436875474172,511
1436875474176,512
1436875474180,512
1436875474184,511
1436875474188,511
1436875474192,1022
1436875474196,509
1436875474200,509
1436875474204,508
1436875474208,1023
1436875474212,506
1436875474216,505
1436875474220,505
1436875474224,504
1436875474228,504
1436875474232,504
1436875474236,503
1436875474240,1023
1436875474244,503
1436875474248,504
1436875474252,504
1436875474256,504
1436875474260,504
1436875474264,504
1436875474268,503
1436875474272,1023
1436875474276,503
1436875474280,503
1436875474284,503
1436875474288,504
1436875474292,504
1436875474296,504
1436875474300,504
1436875474304,504
1436875474308,504
1436875474312,504
1436875474316,504
1436875474320,505
1436875474324,505
1436875474328,505
1436875474332,505
1436875474336,505
1436875474340,505
1436875474344,505
1436875474348,505
1436875474352,505
1436875474356,505
1436875474360,505
1436875474364,505
1436875474368,505
1436875474372,505
1436875474376,505
1436875474380,505
1436875474384,504
1436875474388,505
1436875474392,505
1436875474396,505
1436875474400,505
1436875474404,505
1436875474408,505
1436875474412,505
1436875474416,505
1436875474420,505
1436875474424,505
1436875474428,505
1436875474432,505
1436875474436,505
1436875474440,505
1436875474444,505
1436875474448,505
1436875474452,504
1436875474456,504
1436875474460,504
1436875474464,504
1436875474468,504
1436875474472,504
1436875474476,504
1436875474480,503
1436875474484,503
1436875474488,503
1436875474492,504
1436875474496,504
1436875474500,504
1436875474504,504
1436875474508,504
1436875474512,504
1436875474516,504
1436875474520,503
1436875474524,1023
1436875474528,504
1436875474532,504
1436875474536,504
1436875474540,504
1436875474544,504
1436875474548,504
1436875474552,504
1436875474556,504
1436875474560,504
1436875474564,504
1436875474568,504
1436875474572,504
1436875474576,504
1436875474580,504
1436875474584,504
1436875474588,504
1436875474592,504
1436875474596,505
1436875474600,505
1436875474604,506
1436875474608,506
1436875474612,506
1436875474616,1022
1436875474620,506
1436875474624,506
1436875474628,505
1436875474632,505
1436875474636,505
1436875474640,505
1436875474644,504
1436875474648,504
1436875474652,504
1436875474656,504
1436875474660,504
1436875474664,505
1436875474668,505
1436875474672,506
1436875474676,506
1436875474680,1022
1436875474684,506
1436875474688,507
1436875474692,507
1436875474696,1023
1436875474700,506
1436875474704,503
1436875474708,498
1436875474712,492
1436875474716,487
1436875474720,486
1436875474724,491
1436875474728,1022
1436875474732,520
1436875474736,543
1436875474740,568
1436875474744,593
1436875474748,611
1436875474752,617
1436875474756,607
1436875474760,1023
1436875474764,551
1436875474768,523
1436875474772,505
1436875474776,1022
1436875474780,498
1436875474784,501
1436875474788,503
1436875474792,504
1436875474796,504
1436875474800,504
1436875474804,504
1436875474808,503
1436875474812,503
1436875474816,502
1436875474820,1022
1436875474824,502
1436875474828,503
1436875474832,504
1436875474836,504
1436875474840,504
1436875474844,504
1436875474848,504
1436875474852,1023
1436875474856,503
1436875474860,503
1436875474864,504
1436875474868,504
1436875474872,504
1436875474876,505
1436875474880,505
1436875474884,505
1436875474888,506
1436875474892,506
1436875474896,506
1436875474900,1022
1436875474904,506
1436875474908,506
1436875474912,507
1436875474916,1023
1436875474920,508
1436875474924,509
1436875474928,510
1436875474932,1022
1436875474936,510
1436875474940,509
1436875474944,510
1436875474948,1022
1436875474952,510
1436875474956,511
1436875474960,511
1436875474964,1023
1436875474968,512
1436875474972,512
1436875474976,512
1436875474980,512
1436875474984,512
1436875474988,511
1436875474992,511
1436875474996,1022
1436875475000,509
1436875475004,509
1436875475008,508
1436875475012,1023
1436875475016,506
1436875475020,506
1436875475024,506
1436875475028,505
1436875475032,505
1436875475036,505
1436875475040,505
1436875475044,1022
1436875475048,506
1436875475052,505
1436875475056,505
1436875475060,504
1436875475064,504
1436875475068,504
1436875475072,504
1436875475076,505
1436875475080,505
1436875475084,506
1436875475088,1022
1436875475092,506
1436875475096,506
1436875475100,506
1436875475104,1022
1436875475108,506
1436875475112,507
1436875475116,507
1436875475120,1023
1436875475124,507
1436875475128,507
1436875475132,507
1436875475136,1023
1436875475140,507
1436875475144,507
1436875475148,507
1436875475152,1023
1436875475156,507
1436875475160,507
1436875475164,508
1436875475168,508
1436875475172,509
1436875475176,508
1436875475180,508
1436875475184,1023
1436875475188,507
1436875475192,507
1436875475196,508
1436875475200,508
1436875475204,508
1436875475208,508
1436875475212,507
1436875475216,1023
1436875475220,507
1436875475224,507
1436875475228,507
1436875475232,508
1436875475236,508
1436875475240,508
1436875475244,508
1436875475248,508
1436875475252,508
1436875475256,508
1436875475260,508
1436875475264,508
1436875475268,508
1436875475272,508
1436875475276,508
1436875475280,1023
1436875475284,507
1436875475288,508
1436875475292,508
1436875475296,508
1436875475300,508
1436875475304,508
1436875475308,507
1436875475312,507
1436875475316,507
1436875475320,507
1436875475324,1023
1436875475328,507
1436875475332,507
1436875475336,507
1436875475340,1023
1436875475344,507
1436875475348,508
1436875475352,508
1436875475356,508
1436875475360,509
1436875475364,509
1436875475368,509
1436875475372,509
1436875475376,509
1436875475380,509
1436875475384,509
1436875475388,509
1436875475392,509
1436875475396,508
1436875475400,508
1436875475404,508
1436875475408,509
1436875475412,509
1436875475416,509
1436875475420,509
1436875475424,509
1436875475428,509
1436875475432,509
1436875475436,509
1436875475440,508
1436875475444,509
1436875475448,509
1436875475452,1022
1436875475456,510
1436875475460,510
1436875475464,507
1436875475468,1022
1436875475472,495
1436875475476,489
1436875475480,487
1436875475484,489
1436875475488,498
1436875475492,513
1436875475496,534
1436875475500,1023
1436875475504,585
1436875475508,607
1436875475512,619
1436875475516,616
1436875475520,597
1436875475524,568
1436875475528,537
1436875475532,1022
1436875475536,502
1436875475540,500
1436875475544,502
1436875475548,505
1436875475552,506
1436875475556,505
1436875475560,505
1436875475564,504
1436875475568,504
1436875475572,504
1436875475576,504
1436875475580,504
1436875475584,504
1436875475588,504
1436875475592,504
1436875475596,504
1436875475600,504
1436875475604,504
1436875475608,504
1436875475612,504
1436875475616,505
1436875475620,505
1436875475624,505
1436875475628,505
1436875475632,505
1436875475636,505
1436875475640,505
1436875475644,506
1436875475648,506
1436875475652,505
1436875475656,1022
1436875475660,506
1436875475664,506
1436875475668,507
1436875475672,1023
1436875475676,508
1436875475680,508
1436875475684,509
1436875475688,509
1436875475692,509
1436875475696,509
1436875475700,509
1436875475704,509
1436875475708,510
1436875475712,510
1436875475716,510
1436875475720,1023
1436875475724,511
1436875475728,511
1436875475732,511
1436875475736,512
1436875475740,512
1436875475744,512
1436875475748,511
1436875475752,1023
1436875475756,510
1436875475760,509
1436875475764,508
1436875475768,508
1436875475772,507
1436875475776,506
1436875475780,506
1436875475784,1022
1436875475788,506
1436875475792,506
1436875475796,506
1436875475800,505
1436875475804,505
1436875475808,505
1436875475812,505
1436875475816,505
1436875475820,505
1436875475824,505
1436875475828,505
1436875475832,505
1436875475836,506
1436875475840,506
1436875475844,1022
1436875475848,506
1436875475852,506
1436875475856,506
1436875475860,1022
1436875475864,506
1436875475868,506
1436875475872,506
1436875475876,1022
1436875475880,506
1436875475884,507
1436875475888,507
1436875475892,1023
1436875475896,507
1436875475900,507
1436875475904,506
1436875475908,1022
1436875475912,506
1436875475916,507
1436875475920,507
1436875475924,1023
1436875475928,507
1436875475932,507
1436875475936,507
1436875475940,1022
1436875475944,506
1436875475948,506
1436875475952,507
1436875475956,1023
1436875475960,506
1436875475964,506
1436875475968,506
1436875475972,1022
1436875475976,506
1436875475980,506
1436875475984,506
1436875475988,1022
1436875475992,506
1436875475996,506
1436875476000,506
1436875476004,1022
1436875476008,506
1436875476012,506
1436875476016,506
1436875476020,1022
1436875476024,506
1436875476028,506
1436875476032,506
1436875476036,1022
1436875476040,506
1436875476044,506
1436875476048,507
1436875476052,1023
1436875476056,506
1436875476060,506
1436875476064,506
1436875476068,506
1436875476072,506
1436875476076,505
1436875476080,505
1436875476084,505
1436875476088,506
1436875476092,506
1436875476096,1022
1436875476100,507
1436875476104,507
1436875476108,507
1436875476112,1023
1436875476116,507
1436875476120,507
1436875476124,507
1436875476128,508
1436875476132,508
1436875476136,508
1436875476140,507
1436875476144,1023
1436875476148,507
1436875476152,507
1436875476156,506
1436875476160,1022
1436875476164,507
1436875476168,507
1436875476172,508
1436875476176,508
1436875476180,508
1436875476184,507
1436875476188,507
1436875476192,1023
1436875476196,508
1436875476200,508
1436875476204,508
1436875476208,1022
1436875476212,502
1436875476216,496
1436875476220,491
1436875476224,1023
1436875476228,487
1436875476232,494
1436875476236,507
1436875476240,525
1436875476244,548
1436875476248,573
1436875476252,597
1436875476256,613
1436875476260,616
1436875476264,603
1436875476268,577
1436875476272,1022
1436875476276,519
1436875476280,504
1436875476284,498
1436875476288,500
1436875476292,503
1436875476296,504
1436875476300,504
1436875476304,1023
1436875476308,503
1436875476312,503
1436875476316,503
1436875476320,502
1436875476324,502
1436875476328,502
1436875476332,1022
1436875476336,502
1436875476340,502
1436875476344,503
1436875476348,1023
1436875476352,503
1436875476356,503
1436875476360,503
1436875476364,1023
1436875476368,503
1436875476372,503
1436875476376,503
1436875476380,504
1436875476384,504
1436875476388,505
1436875476392,505
1436875476396,505
1436875476400,505
1436875476404,505
1436875476408,505
1436875476412,505
1436875476416,506
1436875476420,507
1436875476424,507
1436875476428,508
1436875476432,508
1436875476436,508
1436875476440,509
1436875476444,509
1436875476448,509
1436875476452,508
1436875476456,508
1436875476460,509
1436875476464,509
1436875476468,509
1436875476472,510
1436875476476,1022
1436875476480,511
1436875476484,511
1436875476488,512
1436875476492,512
1436875476496,511
1436875476500,511
1436875476504,510
1436875476508,509
1436875476512,508
1436875476516,508
1436875476520,507
1436875476524,1023
1436875476528,506
1436875476532,506
1436875476536,506
1436875476540,1022
1436875476544,506
1436875476548,506
1436875476552,506
1436875476556,505
1436875476560,506
1436875476564,506
1436875476568,506
1436875476572,506
1436875476576,506
1436875476580,506
1436875476584,1022
1436875476588,506
1436875476592,506
1436875476596,506
1436875476600,1022
1436875476604,507
1436875476608,507
1436875476612,508
1436875476616,508
1436875476620,507
1436875476624,507
1436875476628,507
1436875476632,1023
1436875476636,507
1436875476640,508
1436875476644,508
1436875476648,508
1436875476652,507
1436875476656,507
1436875476660,507
1436875476664,1023
1436875476668,507
1436875476672,508
1436875476676,508
1436875476680,508
1436875476684,508
1436875476688,507
1436875476692,507
1436875476696,1023
1436875476700,507
1436875476704,508
1436875476708,508
1436875476712,508
1436875476716,508
1436875476720,508
1436875476724,508
1436875476728,508
1436875476732,508
1436875476736,508
1436875476740,508
1436875476744,508
1436875476748,508
1436875476752,508
1436875476756,508
1436875476760,508
1436875476764,508
1436875476768,508
1436875476772,507
1436875476776,1023
1436875476780,508
1436875476784,508
1436875476788,508
1436875476792,508
1436875476796,509
1436875476800,508
1436875476804,508
1436875476808,508
1436875476812,508
1436875476816,507
1436875476820,507
1436875476824,507
1436875476828,507
1436875476832,507
1436875476836,1023
1436875476840,507
1436875476844,508
1436875476848,508
1436875476852,509
1436875476856,509
1436875476860,509
1436875476864,510
1436875476868,1022
1436875476872,510
1436875476876,510
1436875476880,510
1436875476884,1022
1436875476888,510
1436875476892,510
1436875476896,510
1436875476900,1022
1436875476904,509
1436875476908,509
1436875476912,509
1436875476916,509
1436875476920,510
1436875476924,510
1436875476928,510
1436875476932,1022
1436875476936,510
1436875476940,510
1436875476944,510
1436875476948,1023
1436875476952,511
1436875476956,510
1436875476960,508
1436875476964,1023
1436875476968,498
1436875476972,493
1436875476976,491
1436875476980,1022
1436875476984,503
1436875476988,517
1436875476992,536
1436875476996,1023
1436875477000,583
1436875477004,602
1436875477008,612
1436875477012,609
1436875477016,591
1436875477020,564
1436875477024,536
1436875477028,1023
1436875477032,504
1436875477036,502
1436875477040,504
1436875477044,1022
1436875477048,507
1436875477052,506
1436875477056,506
1436875477060,505
1436875477064,505
1436875477068,505
1436875477072,505
1436875477076,505
1436875477080,505
1436875477084,505
1436875477088,505
1436875477092,505
1436875477096,505
1436875477100,505
1436875477104,505
1436875477108,505
1436875477112,505
1436875477116,506
1436875477120,1022
1436875477124,506
1436875477128,507
1436875477132,507
1436875477136,1023
1436875477140,507
1436875477144,507
1436875477148,507
1436875477152,1023
1436875477156,507
1436875477160,508
1436875477164,508
1436875477168,509
1436875477172,510
1436875477176,510
1436875477180,510
1436875477184,1022
1436875477188,510
1436875477192,510
1436875477196,510
1436875477200,1022
1436875477204,510
1436875477208,510
1436875477212,511
1436875477216,1023
1436875477220,511
1436875477224,512
1436875477228,512
1436875477232,512
1436875477236,512
1436875477240,512
1436875477244,512
1436875477248,1023
1436875477252,511
1436875477256,510
1436875477260,510
1436875477264,509
1436875477268,509
1436875477272,509
1436875477276,508
1436875477280,508
1436875477284,507
1436875477288,507
1436875477292,508
1436875477296,508
1436875477300,508
1436875477304,508
1436875477308,508
1436875477312,508
1436875477316,508
1436875477320,508
1436875477324,508
1436875477328,508
1436875477332,508
1436875477336,508
1436875477340,508
1436875477344,508
1436875477348,508
1436875477352,508
1436875477356,509
1436875477360,509
1436875477364,509
1436875477368,509
1436875477372,509
1436875477376,509
1436875477380,509
1436875477384,509
1436875477388,509
1436875477392,509
1436875477396,509
1436875477400,509
1436875477404,509
1436875477408,509
1436875477412,509
1436875477416,509
1436875477420,509
1436875477424,509
1436875477428,509
1436875477432,509
1436875477436,509
1436875477440,509
1436875477444,509
1436875477448,509
1436875477452,509
1436875477456,509
1436875477460,508
1436875477464,508
1436875477468,508
1436875477472,508
1436875477476,509
1436875477480,509
1436875477484,508
1436875477488,508
1436875477492,508
1436875477496,508
1436875477500,508
1436875477504,508
1436875477508,508
1436875477512,508
1436875477516,508
1436875477520,508
1436875477524,508
1436875477528,508
1436875477532,508
1436875477536,508
1436875477540,508
1436875477544,508
1436875477548,508
1436875477552,508
1436875477556,508
1436875477560,508
1436875477564,508
1436875477568,508
1436875477572,508
1436875477576,508
1436875477580,508
1436875477584,508
1436875477588,508
1436875477592,508
1436875477596,508
1436875477600,508
1436875477604,508
1436875477608,508
1436875477612,508
1436875477616,508
1436875477620,508
1436875477624,508
1436875477628,507
1436875477632,507
1436875477636,507
1436875477640,1023
1436875477644,507
1436875477648,508
1436875477652,508
1436875477656,508
1436875477660,508
1436875477664,509
1436875477668,509
1436875477672,1022
1436875477676,510
1436875477680,510
1436875477684,510
1436875477688,1022
1436875477692,509
1436875477696,509
1436875477700,509
1436875477704,509
1436875477708,509
1436875477712,509
1436875477716,509
1436875477720,509
1436875477724,509
1436875477728,509
1436875477732,509
1436875477736,509
1436875477740,509
1436875477744,509
1436875477748,509
1436875477752,509
1436875477756,510
1436875477760,510
1436875477764,510
1436875477768,509
1436875477772,506
1436875477776,501
1436875477780,496
1436875477784,492
1436875477788,491
1436875477792,495
1436875477796,505
1436875477800,520
1436875477804,539
1436875477808,561
1436875477812,583
1436875477816,600
1436875477820,608
1436875477824,601
1436875477828,582
1436875477832,555
1436875477836,529
1436875477840,511
1436875477844,1023
1436875477848,502
1436875477852,504
1436875477856,505
1436875477860,505
1436875477864,505
1436875477868,505
1436875477872,504
1436875477876,504
1436875477880,504
1436875477884,504
1436875477888,504
1436875477892,504
1436875477896,504
1436875477900,504
1436875477904,504
1436875477908,504
1436875477912,505
1436875477916,505
1436875477920,505
1436875477924,505
1436875477928,506
1436875477932,506
1436875477936,506
1436875477940,1022
1436875477944,506
1436875477948,506
1436875477952,506
1436875477956,1022
1436875477960,506
1436875477964,506
1436875477968,506
1436875477972,1023
1436875477976,507
1436875477980,508
1436875477984,508
1436875477988,509
1436875477992,509
1436875477996,509
1436875478000,509
1436875478004,509
1436875478008,509
1436875478012,509
1436875478016,510
1436875478020,1022
1436875478024,510
1436875478028,510
1436875478032,510
1436875478036,1022
1436875478040,511
1436875478044,512
1436875478048,513
1436875478052,513
1436875478056,513
1436875478060,512
1436875478064,512
1436875478068,1023
1436875478072,510
1436875478076,510
1436875478080,510
1436875478084,509
1436875478088,509
1436875478092,508
1436875478096,508
1436875478100,508
1436875478104,508
1436875478108,508
1436875478112,508
1436875478116,508
1436875478120,508
1436875478124,508
1436875478128,508
1436875478132,508
1436875478136,508
1436875478140,508
1436875478144,508
1436875478148,509
1436875478152,509
1436875478156,509
1436875478160,509
1436875478164,509
1436875478168,509
1436875478172,509
1436875478176,509
1436875478180,508
1436875478184,508
1436875478188,509
1436875478192,509
1436875478196,509
1436875478200,509
1436875478204,509
1436875478208,509
1436875478212,509
1436875478216,509
1436875478220,509
1436875478224,509
1436875478228,509
1436875478232,509
1436875478236,509
1436875478240,509
1436875478244,509
1436875478248,509
1436875478252,509
1436875478256,508
1436875478260,508
1436875478264,508
1436875478268,508
1436875478272,508
1436875478276,508
1436875478280,508
1436875478284,508
1436875478288,508
1436875478292,508
1436875478296,508
1436875478300,508
1436875478304,509
1436875478308,508
1436875478312,508
1436875478316,508
1436875478320,508
1436875478324,508
1436875478328,508
1436875478332,508
1436875478336,508
1436875478340,508
1436875478344,508
1436875478348,1023
1436875478352,507
1436875478356,507
1436875478360,507
1436875478364,508
1436875478368,508
1436875478372,508
1436875478376,508
1436875478380,508
1436875478384,508
1436875478388,507
1436875478392,507
1436875478396,1023
1436875478400,507
1436875478404,507
1436875478408,507
1436875478412,1023
1436875478416,507
1436875478420,508
1436875478424,508
1436875478428,508
1436875478432,507
1436875478436,507
1436875478440,506
1436875478444,1022
1436875478448,506
1436875478452,506
1436875478456,506
1436875478460,1022
1436875478464,506
1436875478468,506
1436875478472,506
1436875478476,1023
1436875478480,507
1436875478484,508
1436875478488,508
1436875478492,508
1436875478496,508
1436875478500,507
1436875478504,507
1436875478508,1023
1436875478512,507
1436875478516,507
1436875478520,507
1436875478524,1023
1436875478528,506
1436875478532,506
1436875478536,506
1436875478540,1023
1436875478544,507
1436875478548,508
1436875478552,508
1436875478556,508
1436875478560,507
1436875478564,507
1436875478568,507
1436875478572,1023
1436875478576,507
1436875478580,505
1436875478584,501
1436875478588,496
1436875478592,491
1436875478596,488
1436875478600,489
1436875478604,496
1436875478608,509
1436875478612,526
1436875478616,548
1436875478620,571
1436875478624,591
1436875478628,603
1436875478632,1023
1436875478636,589
1436875478640,564
1436875478644,536
1436875478648,1022
1436875478652,501
1436875478656,498
1436875478660,500
1436875478664,1022
1436875478668,504
1436875478672,504
1436875478676,503
1436875478680,1023
1436875478684,502
1436875478688,502
1436875478692,501
1436875478696,501
1436875478700,501
1436875478704,501
1436875478708,501
1436875478712,1022
1436875478716,502
1436875478720,502
1436875478724,502
1436875478728,1022
1436875478732,503
1436875478736,503
1436875478740,503
1436875478744,1023
1436875478748,504
1436875478752,504
1436875478756,504
1436875478760,504
1436875478764,504
1436875478768,504
1436875478772,504
1436875478776,504
1436875478780,505
1436875478784,505
1436875478788,505
1436875478792,1022
1436875478796,506
1436875478800,507
1436875478804,507
1436875478808,508
1436875478812,508
1436875478816,508
1436875478820,508
1436875478824,508
1436875478828,508
1436875478832,508
1436875478836,508
1436875478840,508
1436875478844,509
1436875478848,509
1436875478852,1022
1436875478856,510
1436875478860,509
1436875478864,509
1436875478868,508
1436875478872,508
1436875478876,508
1436875478880,508
1436875478884,1023
1436875478888,506
1436875478892,505
1436875478896,504
1436875478900,504
1436875478904,503
1436875478908,503
1436875478912,503
1436875478916,1023
1436875478920,503
1436875478924,503
1436875478928,503
1436875478932,1023
1436875478936,503
1436875478940,503
1436875478944,503
1436875478948,1023
1436875478952,503
1436875478956,503
1436875478960,504
1436875478964,1023
1436875478968,503
1436875478972,503
1436875478976,504
1436875478980,504
1436875478984,504
1436875478988,504
1436875478992,504
1436875478996,504
1436875479000,504
1436875479004,504
1436875479008,504
1436875479012,504
1436875479016,504
1436875479020,504
1436875479024,505
1436875479028,505
1436875479032,505
1436875479036,505
1436875479040,504
1436875479044,504
1436875479048,504
1436875479052,504
1436875479056,504
1436875479060,504
1436875479064,504
1436875479068,504
1436875479072,504
1436875479076,504
1436875479080,504
1436875479084,504
1436875479088,504
1436875479092,504
1436875479096,504
1436875479100,504
1436875479104,504
1436875479108,504
1436875479112,504
1436875479116,503
1436875479120,1023
1436875479124,504
1436875479128,504
1436875479132,505
1436875479136,505
1436875479140,506
1436875479144,505
1436875479148,506
1436875479152,1022
1436875479156,506
1436875479160,506
1436875479164,507
1436875479168,1023
1436875479172,506
1436875479176,506
1436875479180,506
1436875479184,1022
1436875479188,506
1436875479192,506
1436875479196,505
1436875479200,505
1436875479204,505
1436875479208,505
1436875479212,505
1436875479216,505
1436875479220,505
1436875479224,506
1436875479228,506
1436875479232,1023
1436875479236,507
1436875479240,507
1436875479244,507
1436875479248,1023
1436875479252,507
1436875479256,507
1436875479260,507
1436875479264,1023
1436875479268,507
1436875479272,507
1436875479276,507
1436875479280,1023
1436875479284,507
1436875479288,507
1436875479292,507
1436875479296,508
1436875479300,508
1436875479304,508
1436875479308,508
1436875479312,1023
1436875479316,507
1436875479320,507
1436875479324,507
1436875479328,508
1436875479332,508
1436875479336,506
1436875479340,503
1436875479344,498
1436875479348,492
1436875479352,487
1436875479356,1023
1436875479360,492
1436875479364,504
1436875479368,522
1436875479372,545
1436875479376,569
1436875479380,592
1436875479384,607
1436875479388,1022
1436875479392,597
1436875479396,572
1436875479400,543
1436875479404,1022
1436875479408,503
1436875479412,498
1436875479416,500
1436875479420,1023
1436875479424,505
1436875479428,505
1436875479432,504
1436875479436,1023
1436875479440,503
1436875479444,502
1436875479448,502
1436875479452,1022
1436875479456,502
1436875479460,503
1436875479464,503
1436875479468,1023
1436875479472,503
1436875479476,503
1436875479480,503
1436875479484,1023
1436875479488,503
1436875479492,504
1436875479496,504
1436875479500,504
1436875479504,504
1436875479508,504
1436875479512,504
1436875479516,504
1436875479520,504
1436875479524,504
1436875479528,505
1436875479532,505
1436875479536,506
1436875479540,506
1436875479544,506
1436875479548,1022
1436875479552,506
1436875479556,507
1436875479560,508
1436875479564,508
1436875479568,509
1436875479572,509
1436875479576,509
1436875479580,508
1436875479584,508
1436875479588,508
1436875479592,509
1436875479596,509
1436875479600,509
1436875479604,510
1436875479608,1022
1436875479612,510
1436875479616,510
1436875479620,509
1436875479624,509
1436875479628,509
1436875479632,508
1436875479636,508
1436875479640,1023
1436875479644,506
1436875479648,505
1436875479652,504
1436875479656,504
1436875479660,503
1436875479664,503
1436875479668,504
1436875479672,504
1436875479676,504
1436875479680,504
1436875479684,504
1436875479688,504
1436875479692,503
1436875479696,503
1436875479700,503
1436875479704,1023
1436875479708,503
1436875479712,503
1436875479716,503
1436875479720,504
1436875479724,504
1436875479728,504
1436875479732,504
1436875479736,505
1436875479740,505
1436875479744,505
1436875479748,505
1436875479752,505
1436875479756,505
1436875479760,505
1436875479764,505
1436875479768,505
1436875479772,505
1436875479776,505
1436875479780,505
1436875479784,505
1436875479788,505
1436875479792,505
1436875479796,506
1436875479800,1022
1436875479804,506
1436875479808,506
1436875479812,506
1436875479816,1022
1436875479820,506
1436875479824,506
1436875479828,506
1436875479832,1022
1436875479836,506
1436875479840,506
1436875479844,506
1436875479848,506
1436875479852,506
1436875479856,506
1436875479860,1022
1436875479864,506
1436875479868,506
1436875479872,506
1436875479876,1022
1436875479880,506
1436875479884,506
1436875479888,506
1436875479892,1022
1436875479896,506
1436875479900,506
1436875479904,506
1436875479908,1022
1436875479912,506
1436875479916,506
1436875479920,506
1436875479924,1022
1436875479928,506
1436875479932,506
1436875479936,506
1436875479940,1022
1436875479944,506
1436875479948,506
1436875479952,507
1436875479956,508
1436875479960,508
1436875479964,508
1436875479968,509
1436875479972,509
1436875479976,508
1436875479980,508
1436875479984,508
1436875479988,508
1436875479992,508
1436875479996,508
1436875480000,508
1436875480004,508
1436875480008,508
1436875480012,508
1436875480016,508
1436875480020,508
1436875480024,508
1436875480028,508
1436875480032,508
1436875480036,508
1436875480040,509
1436875480044,509
1436875480048,510
1436875480052,1022
1436875480056,510
1436875480060,508
1436875480064,503
1436875480068,1022
1436875480072,492
1436875480076,489
1436875480080,490
1436875480084,497
1436875480088,511
1436875480092,529
1436875480096,552
milis,rr
1436875480100,576
1436875480104,597
1436875480108,609
1436875480112,608
1436875480116,592
1436875480120,566
1436875480124,538
1436875480128,1023
1436875480132,503
1436875480136,500
1436875480140,502
1436875480144,504
1436875480148,506
1436875480152,505
1436875480156,505
1436875480160,504
1436875480164,504
1436875480168,504
1436875480172,504
1436875480176,504
1436875480180,505
1436875480184,505
1436875480188,504
1436875480192,504
1436875480196,504
1436875480200,504
1436875480204,505
1436875480208,505
1436875480212,505
1436875480216,505
1436875480220,505
1436875480224,505
1436875480228,505
1436875480232,505
1436875480236,506
1436875480240,1022
1436875480244,506
1436875480248,506
1436875480252,506
1436875480256,1022
1436875480260,506
1436875480264,506
1436875480268,506
1436875480272,1023
1436875480276,507
1436875480280,508
1436875480284,508
1436875480288,508
1436875480292,509
1436875480296,509
1436875480300,509
1436875480304,509
1436875480308,509
1436875480312,509
1436875480316,509
1436875480320,509
1436875480324,509
1436875480328,509
1436875480332,509
1436875480336,1022
1436875480340,510
1436875480344,510
1436875480348,510
1436875480352,509
1436875480356,508
1436875480360,507
1436875480364,1023
1436875480368,506
1436875480372,506
1436875480376,505
1436875480380,505
1436875480384,505
1436875480388,504
1436875480392,504
1436875480396,504
1436875480400,504
1436875480404,504
1436875480408,504
1436875480412,504
1436875480416,504
1436875480420,505
1436875480424,505
1436875480428,505
1436875480432,505
1436875480436,504
1436875480440,504
1436875480444,504
1436875480448,504
1436875480452,504
1436875480456,504
1436875480460,504
1436875480464,505
1436875480468,504
1436875480472,504
1436875480476,504
1436875480480,504
1436875480484,504
1436875480488,504
1436875480492,505
1436875480496,505
1436875480500,505
1436875480504,504
1436875480508,504
1436875480512,503
1436875480516,503
1436875480520,503
1436875480524,1023
1436875480528,503
1436875480532,503
1436875480536,503
1436875480540,1023
1436875480544,503
1436875480548,503
1436875480552,503
1436875480556,1022
1436875480560,502
1436875480564,502
1436875480568,502
1436875480572,1022
1436875480576,502
1436875480580,502
1436875480584,502
1436875480588,1022
1436875480592,502
1436875480596,502
1436875480600,502
1436875480604,501
1436875480608,501
1436875480612,501
1436875480616,501
1436875480620,501
1436875480624,501
1436875480628,501
1436875480632,1022
1436875480636,502
1436875480640,502
1436875480644,501
1436875480648,501
1436875480652,500
1436875480656,500
1436875480660,501
1436875480664,501
1436875480668,501
1436875480672,501
1436875480676,500
1436875480680,500
1436875480684,500
1436875480688,500
1436875480692,500
1436875480696,501
1436875480700,501
1436875480704,500
1436875480708,500
1436875480712,500
1436875480716,500
1436875480720,501
1436875480724,501
1436875480728,1022
1436875480732,502
1436875480736,502
1436875480740,502
1436875480744,1022
1436875480748,502
1436875480752,502
1436875480756,502
1436875480760,1023
1436875480764,496
1436875480768,491
1436875480772,486
1436875480776,485
1436875480780,488
1436875480784,496
1436875480788,511
1436875480792,529
1436875480796,551
1436875480800,572
1436875480804,587
1436875480808,592
1436875480812,585
1436875480816,566
1436875480820,542
1436875480824,1022
1436875480828,502
1436875480832,494
1436875480836,493
1436875480840,1023
1436875480844,497
1436875480848,498
1436875480852,497
1436875480856,497
1436875480860,496
1436875480864,496
1436875480868,496
1436875480872,496
1436875480876,496
1436875480880,496
1436875480884,496
1436875480888,496
1436875480892,496
1436875480896,496
1436875480900,496
1436875480904,496
1436875480908,497
1436875480912,497
1436875480916,497
1436875480920,497
1436875480924,497
1436875480928,497
1436875480932,497
1436875480936,497
1436875480940,498
1436875480944,498
1436875480948,1022
1436875480952,499
1436875480956,499
1436875480960,499
1436875480964,1023
1436875480968,500
1436875480972,500
1436875480976,500
1436875480980,500
1436875480984,501
1436875480988,501
1436875480992,501
1436875480996,501
1436875481000,501
1436875481004,501
1436875481008,501
1436875481012,1022
1436875481016,502
1436875481020,503
1436875481024,503
1436875481028,1023
1436875481032,503
1436875481036,504
1436875481040,504
1436875481044,504
1436875481048,503
1436875481052,503
1436875481056,502
1436875481060,1022
1436875481064,501
1436875481068,501
1436875481072,501
1436875481076,500
1436875481080,500
1436875481084,500
1436875481088,500
1436875481092,500
1436875481096,500
1436875481100,500
1436875481104,500
1436875481108,500
1436875481112,500
1436875481116,500
1436875481120,501
1436875481124,501
1436875481128,501
1436875481132,501
1436875481136,501
1436875481140,501
1436875481144,501
1436875481148,501
1436875481152,501
1436875481156,502
1436875481160,502
1436875481164,502
1436875481168,1022
1436875481172,502
1436875481176,502
1436875481180,502
1436875481184,1022
1436875481188,503
1436875481192,503
1436875481196,503
1436875481200,1023
1436875481204,503
1436875481208,503
1436875481212,503
1436875481216,1023
1436875481220,503
1436875481224,504
1436875481228,504
1436875481232,504
1436875481236,504
1436875481240,504
1436875481244,504
1436875481248,504
1436875481252,504
1436875481256,504
1436875481260,504
1436875481264,504
1436875481268,505
1436875481272,505
1436875481276,504
1436875481280,504
1436875481284,503
1436875481288,503
1436875481292,503
1436875481296,1023
1436875481300,503
1436875481304,503
1436875481308,502
1436875481312,1022
1436875481316,500
1436875481320,498
1436875481324,496
1436875481328,493
1436875481332,490
1436875481336,487
1436875481340,485
1436875481344,1022
1436875481348,481
1436875481352,479
1436875481356,477
1436875481360,476
1436875481364,475
1436875481368,473
1436875481372,472
1436875481376,471
1436875481380,471
1436875481384,470
1436875481388,1022
1436875481392,470
1436875481396,470
1436875481400,470
1436875481404,1023
1436875481408,471
1436875481412,471
1436875481416,470
1436875481420,1022
1436875481424,470
1436875481428,470
1436875481432,471
1436875481436,1023
1436875481440,471
1436875481444,469
1436875481448,465
1436875481452,461
1436875481456,458
1436875481460,459
1436875481464,463
1436875481468,1022
1436875481472,489
1436875481476,507
1436875481480,527
1436875481484,1022
1436875481488,560
1436875481492,563
1436875481496,555
1436875481500,1022
1436875481504,515
1436875481508,495
1436875481512,482
1436875481516,476
1436875481520,475
1436875481524,477
1436875481528,478
1436875481532,1023
1436875481536,479
1436875481540,479
1436875481544,478
1436875481548,1022
1436875481552,478
1436875481556,478
1436875481560,479
1436875481564,1023
1436875481568,480
1436875481572,480
1436875481576,480
1436875481580,481
1436875481584,481
1436875481588,481
1436875481592,482
1436875481596,1022
1436875481600,483
1436875481604,483
1436875481608,483
1436875481612,483
1436875481616,483
1436875481620,483
1436875481624,1023
1436875481628,484
1436875481632,484
1436875481636,485
1436875481640,485
1436875481644,485
1436875481648,486
